# M(M_sol)                 Lambda          n_Bc(fm^-3)         R(km)            m_B(M_sol)        m_Bquar/M_B
0.1513159707     35651167.5633656457      0.1150000000      22.1740522456      0.1515208609      0.0000000000
0.1550769059     31293224.7122914195      0.1170000000      21.5630274811      0.1553323685      0.0000000000
0.1588955264     27543136.5216803849      0.1190000000      21.0071046771      0.1592044993      0.0000000000
0.1627795552     24296477.0304387100      0.1210000000      20.4984440281      0.1631451849      0.0000000000
0.1667341006     21472903.4727554359      0.1230000000      20.0309763574      0.1671597218      0.0000000000
0.1707632581     19008289.0861958973      0.1250000000      19.5997762324      0.1712523910      0.0000000000
0.1748706290     16850418.7290402763      0.1270000000      19.2007525738      0.1754269835      0.0000000000
0.1790595367     14956201.2398402374      0.1290000000      18.8304586097      0.1796870186      0.0000000000
0.1833331352     13289671.6134738568      0.1310000000      18.4859583148      0.1840358545      0.0000000000
0.1876944619     11820587.4449087810      0.1330000000      18.1647305854      0.1884767413      0.0000000000
0.1921464700     10523320.9162048586      0.1350000000      17.8645945394      0.1930128541      0.0000000000
0.1966920439      9376025.0962066352      0.1370000000      17.5836513603      0.1976473095      0.0000000000
0.2013340084      8359992.7835806459      0.1390000000      17.3202400702      0.2023831740      0.0000000000
0.2060751313      7459115.1368444785      0.1410000000      17.0728989821      0.2072234676      0.0000000000
0.2109181254      6659477.7049950203      0.1430000000      16.8403361510      0.2121711660      0.0000000000
0.2158656463      5949013.2140930733      0.1450000000      16.6214052353      0.2172291978      0.0000000000
0.2209202896      5317223.8279674416      0.1470000000      16.4150839945      0.2224004432      0.0000000000
0.2260845888      4754951.5399861783      0.1490000000      16.2204579421      0.2276877303      0.0000000000
0.2313610174      4254186.5176130915      0.1510000000      16.0367057031      0.2330938392      0.0000000000
0.2367519567      3807909.3673793166      0.1530000000      15.8630875771      0.2386214673      0.0000000000
0.2422597337      3409951.9995130454      0.1550000000      15.6989340461      0.2442732698      0.0000000000
0.2478865870      3054885.6987561602      0.1570000000      15.5436375871      0.2500518240      0.0000000000
0.2536346720      2737927.2125197733      0.1590000000      15.3966458770      0.2559596348      0.0000000000
0.2595060529      2454851.3148988029      0.1610000000      15.2574540447      0.2619991266      0.0000000000
0.2655027011      2201924.5014660782      0.1630000000      15.1256003499      0.2681726416      0.0000000000
0.2716264884      1975841.2015209624      0.1650000000      15.0006607363      0.2744824328      0.0000000000
0.2778791846      1773672.2178474674      0.1670000000      14.8822446079      0.2809306615      0.0000000000
0.2842624483      1592819.6877523530      0.1690000000      14.7699915806      0.2875193871      0.0000000000
0.2907778380      1430977.0100395947      0.1710000000      14.6635680081      0.2942505796      0.0000000000
0.2974267869      1286095.0340356098      0.1730000000      14.5626645996      0.3011260922      0.0000000000
0.3042106131      1156351.7279364306      0.1750000000      14.4669936069      0.3081476722      0.0000000000
0.3111305133      1040125.7470879691      0.1770000000      14.3762865770      0.3153169540      0.0000000000
0.3181875594       935974.1121217170      0.1790000000      14.2902932243      0.3226354552      0.0000000000
0.3253826962       842611.2691733545      0.1810000000      14.2087790410      0.3301045743      0.0000000000
0.3327167384       758891.6731921183      0.1830000000      14.1315240544      0.3377255865      0.0000000000
0.3401903685       683794.1213394473      0.1850000000      14.0583216378      0.3454996416      0.0000000000
0.3478041349       616407.8398945419      0.1870000000      13.9889773098      0.3534277610      0.0000000000
0.3555584504       555920.1957908395      0.1890000000      13.9233076218      0.3615108364      0.0000000000
0.3634535909       501606.0081872283      0.1910000000      13.8611393759      0.3697496266      0.0000000000
0.3714896940       452817.7590496909      0.1930000000      13.8023086407      0.3781447570      0.0000000000
0.3796667587       408977.3672483552      0.1950000000      13.7466603112      0.3866967170      0.0000000000
0.3879846444       369568.3715292509      0.1970000000      13.6940471180      0.3954058596      0.0000000000
0.3964430714       334129.3494188930      0.1990000000      13.6443292455      0.4042724001      0.0000000000
0.4050416206       302247.9660664383      0.2010000000      13.5973737875      0.4132964159      0.0000000000
0.4137797343       273555.6202247313      0.2030000000      13.5530542546      0.4224778458      0.0000000000
0.4226567168       247722.7142976375      0.2050000000      13.5112500783      0.4318164902      0.0000000000
0.4316717351       224454.5398345882      0.2070000000      13.4718463256      0.4413120106      0.0000000000
0.4408238207       203487.4520235192      0.2090000000      13.4347332605      0.4509639309      0.0000000000
0.4501118714       184585.5613426267      0.2110000000      13.3998061395      0.4607716383      0.0000000000
0.4595346521       167537.7758938801      0.2130000000      13.3669647430      0.4707343828      0.0000000000
0.4690907977       152155.1499602109      0.2150000000      13.3361132992      0.4808512797      0.0000000000
0.4787788156       138268.4828340419      0.2170000000      13.3071601061      0.4911213113      0.0000000000
0.4885970879       125726.2767599075      0.2190000000      13.2800173914      0.5015433274      0.0000000000
0.4985438743       114392.7922775776      0.2210000000      13.2546010309      0.5121160483      0.0000000000
0.5086173152       104146.4227534260      0.2230000000      13.2308304491      0.5228380665      0.0000000000
0.5188154346        94878.1664108968      0.2250000000      13.2086283672      0.5337078489      0.0000000000
0.5291361443        86490.3031120657      0.2270000000      13.1879206686      0.5447237399      0.0000000000
0.5395772468        78895.1941756361      0.2290000000      13.1686362731      0.5558839638      0.0000000000
0.5501364394        72014.2292411983      0.2310000000      13.1507069700      0.5671866276      0.0000000000
0.5608113178        65776.8666159684      0.2330000000      13.1340673116      0.5786297247      0.0000000000
0.5715993810        60119.7827803350      0.2350000000      13.1186544475      0.5902111377      0.0000000000
0.5824980343        54986.1176377039      0.2370000000      13.1044080845      0.6019286420      0.0000000000
0.5935045946        50324.8071114852      0.2390000000      13.0912702665      0.6137799091      0.0000000000
0.6046162943        46089.9599589532      0.2410000000      13.0791854204      0.6257625109      0.0000000000
0.6158302864        42240.3265664528      0.2430000000      13.0681001882      0.6378739233      0.0000000000
0.6271436480        38738.8168687104      0.2450000000      13.0579632184      0.6501115296      0.0000000000
0.6385533863        35552.0622143025      0.2470000000      13.0487253732      0.6624726255      0.0000000000
0.6500564420        32650.0447530926      0.2490000000      13.0403393804      0.6749544223      0.0000000000
0.6616496948        30005.7276492659      0.2510000000      13.0327597965      0.6875540514      0.0000000000
0.6733299684        27594.7681934105      0.2530000000      13.0259431515      0.7002685693      0.0000000000
0.6850940343        25395.2321758099      0.2550000000      13.0198476058      0.7130949605      0.0000000000
0.6969386173        23387.3438574444      0.2570000000      13.0144330072      0.7260301429      0.0000000000
0.7088603999        21553.2747388693      0.2590000000      13.0096608664      0.7390709719      0.0000000000
0.7208560273        19876.9387601600      0.2610000000      13.0054942341      0.7522142446      0.0000000000
0.7329221120        18343.8144058996      0.2630000000      13.0018976683      0.7654567043      0.0000000000
0.7450552382        16940.7893283727      0.2650000000      12.9988371362      0.7787950452      0.0000000000
0.7572519666        15656.0164112164      0.2670000000      12.9962800712      0.7922259163      0.0000000000
0.7695088390        14478.7895893261      0.2690000000      12.9941951822      0.8057459257      0.0000000000
0.7818223830        13399.4252281502      0.2710000000      12.9925525387      0.8193516463      0.0000000000
0.7941891145        12409.1619375482      0.2730000000      12.9913234403      0.8330396169      0.0000000000
0.8066055448        11500.0693880913      0.2750000000      12.9904803714      0.8468063504      0.0000000000
0.8190681833        10664.9649622281      0.2770000000      12.9899969695      0.8606483353      0.0000000000
0.8315735415         9897.3408014847      0.2790000000      12.9898480568      0.8745620410      0.0000000000
0.8441181371         9191.2971924197      0.2810000000      12.9900094960      0.8885439211      0.0000000000
0.8566984980         8541.4817916415      0.2830000000      12.9904581541      0.9025904182      0.0000000000
0.8693111659         7943.0379167480      0.2850000000      12.9911719876      0.9166979669      0.0000000000
0.8819527001         7391.5554248560      0.2870000000      12.9921298817      0.9308629985      0.0000000000
0.8946196805         6883.0285474225      0.2890000000      12.9933116131      0.9450819441      0.0000000000
0.9073087117         6413.8148353756      0.2910000000      12.9946979468      0.9593512384      0.0000000000
0.9200164252         5980.6034818334      0.2930000000      12.9962704677      0.9736673232      0.0000000000
0.9327394835         5580.3798982516      0.2950000000      12.9980115647      0.9880266511      0.0000000000
0.9454745825         5210.4012128726      0.2970000000      12.9999044988      1.0024256881      0.0000000000
0.9582184541         4868.1684250109      0.2990000000      13.0019332865      1.0168609177      0.0000000000
0.9709678692         4551.4038000970      0.3010000000      13.0040826879      1.0313288432      0.0000000000
0.9837196404         4258.0296885729      0.3030000000      13.0063381357      1.0458259913      0.0000000000
0.9964706238         3986.1516783861      0.3050000000      13.0086858615      1.0603489143      0.0000000000
1.0092177214         3734.0394868916      0.3070000000      13.0111126996      1.0748941933      0.0000000000
1.0219578835         3500.1131551673      0.3090000000      13.0136061022      1.0894584406      0.0000000000
1.0346881104         3282.9282883063      0.3110000000      13.0161542185      1.1040383026      0.0000000000
1.0474054543         3081.1647189421      0.3130000000      13.0187457471      1.1186304611      0.0000000000
1.0601070206         2893.6140628947      0.3150000000      13.0213699281      1.1332316368      0.0000000000
1.0727899745         2719.1706296357      0.3170000000      13.0240166259      1.1478385958      0.0000000000
1.0854515209         2556.8216488976      0.3190000000      13.0266761827      1.1624481275      0.0000000000
1.0980889454         2405.6387371559      0.3210000000      13.0293394778      1.1770570921      0.0000000000
1.1106995785         2264.7709060417      0.3230000000      13.0319978653      1.1916623796      0.0000000000
1.1232808136         2133.4373577086      0.3250000000      13.0346431870      1.2062609318      0.0000000000
1.1358301050         2010.9214223281      0.3270000000      13.0372676967      1.2208497391      0.0000000000
1.1483449686         1896.5649638141      0.3290000000      13.0398641400      1.2354258432      0.0000000000
1.1608229823         1789.7631244327      0.3310000000      13.0424256447      1.2499863373      0.0000000000
1.1732617872         1689.9598968203      0.3330000000      13.0449457382      1.2645283680      0.0000000000
1.1856590871         1596.6436354729      0.3350000000      13.0474183393      1.2790491359      0.0000000000
1.1980126498         1509.3436757067      0.3370000000      13.0498377440      1.2935458969      0.0000000000
1.2103203068         1427.6264298124      0.3390000000      13.0521985998      1.3080159631      0.0000000000
1.2225799536         1351.0923449696      0.3410000000      13.0544958589      1.3224567031      0.0000000000
1.2347895496         1279.3732956058      0.3430000000      13.0567248226      1.3368655434      0.0000000000
1.2469471185         1212.1294969249      0.3450000000      13.0588811387      1.3512399683      0.0000000000
1.2590507477         1149.0474659871      0.3470000000      13.0609607091      1.3655775210      0.0000000000
1.2710985884         1089.8378773668      0.3490000000      13.0629597201      1.3798758034      0.0000000000
1.2830888552         1034.2332666546      0.3510000000      13.0648746435      1.3941324767      0.0000000000
1.2950198259          981.9865054024      0.3530000000      13.0667022159      1.4083452620      0.0000000000
1.3068898409          932.8690887385      0.3550000000      13.0684394240      1.4225119397      0.0000000000
1.3186973030          886.6694198322      0.3570000000      13.0700834642      1.4366303502      0.0000000000
1.3304406766          843.1917826540      0.3590000000      13.0716317891      1.4506983938      0.0000000000
1.3421184872          802.2548387879      0.3610000000      13.0730820701      1.4647140302      0.0000000000
1.3537293211          763.6905257250      0.3630000000      13.0744321871      1.4786752793      0.0000000000
1.3652718239          727.3430752281      0.3650000000      13.0756801999      1.4925802197      0.0000000000
1.3767447007          693.0679604631      0.3670000000      13.0768243581      1.5064269896      0.0000000000
1.3881467146          660.7310243844      0.3690000000      13.0778631121      1.5202137862      0.0000000000
1.3994766863          630.2077316854      0.3710000000      13.0787950767      1.5339388648      0.0000000000
1.4107334933          601.3823623202      0.3730000000      13.0796190004      1.5476005392      0.0000000000
1.4219160685          574.1473522550      0.3750000000      13.0803338439      1.5611971806      0.0000000000
1.4330233998          548.4027250731      0.3770000000      13.0809386756      1.5747272175      0.0000000000
1.4440545289          524.0553832501      0.3790000000      13.0814326972      1.5881891348      0.0000000000
1.4550085506          501.0187518094      0.3810000000      13.0818152828      1.6015814737      0.0000000000
1.4658846115          479.2121369008      0.3830000000      13.0820858934      1.6149028305      0.0000000000
1.4766819089          458.5603889527      0.3850000000      13.0822441412      1.6281518564      0.0000000000
1.4873996905          438.9934660310      0.3870000000      13.0822897348      1.6413272567      0.0000000000
1.4980372523          420.4460094847      0.3890000000      13.0822224988      1.6544277899      0.0000000000
1.5085939385          402.8570735551      0.3910000000      13.0820423474      1.6674522671      0.0000000000
1.5190691399          386.1697379561      0.3930000000      13.0817493190      1.6803995513      0.0000000000
1.5294622930          370.3308660611      0.3950000000      13.0813435175      1.6932685565      0.0000000000
1.5397728823          355.2907987610      0.3970000000      13.0808251385      1.7060582510      0.0000000000
1.5500004257          341.0031314412      0.3990000000      13.0801944807      1.7187676402      0.0000000000
1.5601444937          327.4244448082      0.4010000000      13.0794518797      1.7313957901      0.0000000000
1.5702046947          314.5141341032      0.4030000000      13.0785977894      1.7439418108      0.0000000000
1.5801806776          302.2341857378      0.4050000000      13.0776327022      1.7564048587      0.0000000000
1.5900721303          290.5490010379      0.4070000000      13.0765571755      1.7687841364      0.0000000000
1.5998787791          279.4252337227      0.4090000000      13.0753718357      1.7810788914      0.0000000000
1.6096003873          268.8316406596      0.4110000000      13.0740773752      1.7932884153      0.0000000000
1.6192367541          258.7389085715      0.4130000000      13.0726745276      1.8054120432      0.0000000000
1.6287877139          249.1195480462      0.4150000000      13.0711640690      1.8174491521      0.0000000000
1.6382531350          239.9477608775      0.4170000000      13.0695468292      1.8293991607      0.0000000000
1.6476329187          231.1993289222      0.4190000000      13.0678236949      1.8412615282      0.0000000000
1.6569269980          222.8515048484      0.4210000000      13.0659955751      1.8530357531      0.0000000000
1.6661353369          214.8829160110      0.4230000000      13.0640634033      1.8647213728      0.0000000000
1.6752579295          207.2734722141      0.4250000000      13.0620281944      1.8763179622      0.0000000000
1.6842947985          200.0042717052      0.4270000000      13.0598909407      1.8878251334      0.0000000000
1.6932459949          193.0575473962      0.4290000000      13.0576527054      1.8992425341      0.0000000000
1.7021115963          186.4165814173      0.4310000000      13.0553145540      1.9105698470      0.0000000000
1.7108917068          180.0656046497      0.4330000000      13.0528775895      1.9218067892      0.0000000000
1.7195864554          173.9897882447      0.4350000000      13.0503429334      1.9329531107      0.0000000000
1.7281959954          168.1751524035      0.4370000000      13.0477117242      1.9440085942      0.0000000000
1.7367205034          162.6085359341      0.4390000000      13.0449851220      1.9549730536      0.0000000000
1.7451601786          157.2774951970      0.4410000000      13.0421643059      1.9658463335      0.0000000000
1.7535152417          152.1703300573      0.4430000000      13.0392504626      1.9766283082      0.0000000000
1.7617859342          147.2759546600      0.4450000000      13.0362448042      1.9873188811      0.0000000000
1.7699725176          142.5839431655      0.4470000000      13.0331485428      1.9979179834      0.0000000000
1.7780752726          138.0844340253      0.4490000000      13.0299629027      2.0084255737      0.0000000000
1.7860944981          133.7681013723      0.4510000000      13.0266891242      2.0188416369      0.0000000000
1.7940305108          129.6261475977      0.4530000000      13.0233284412      2.0291661837      0.0000000000
1.8018836440          125.6502486968      0.4550000000      13.0198821061      2.0393992494      0.0000000000
1.8096542474          121.8325257309      0.4570000000      13.0163513747      2.0495408936      0.0000000000
1.8173426858          118.1655326733      0.4590000000      13.0127374979      2.0595911990      0.0000000000
1.8249493389          114.6422202834      0.4610000000      13.0090417316      2.0695502707      0.0000000000
1.8324746003          111.2559117852      0.4630000000      13.0052653349      2.0794182360      0.0000000000
1.8399188769          108.0002862828      0.4650000000      13.0014095726      2.0891952428      0.0000000000
1.8472825884          104.8693566922      0.4670000000      12.9974757067      2.0988814596      0.0000000000
1.8545661664          101.8574363278      0.4690000000      12.9934649798      2.1084770744      0.0000000000
1.8617700541           98.9591531322      0.4710000000      12.9893786586      2.1179822942      0.0000000000
1.8688947056           96.1693972530      0.4730000000      12.9852179989      2.1273973444      0.0000000000
