# M(M_sol)                 Lambda          n_Bc(fm^-3)         R(km)            m_B(M_sol)        m_Bquar/M_B
0.1526181343     10975008.4825671520      0.1700000000      16.8012425557      0.1528802239      0.0000000000
0.1589238182      8923655.2821348943      0.1720000000      16.2513124324      0.1592837400      0.0000000000
0.1655004006      7283743.1044675186      0.1740000000      15.7679636497      0.1659695605      0.0000000000
0.1723445942      5967660.4349747039      0.1760000000      15.3419094811      0.1729351775      0.0000000000
0.1794531028      4907504.3740244480      0.1780000000      14.9653839456      0.1801780863      0.0000000000
0.1868226442      4050379.2602929291      0.1800000000      14.6318597158      0.1876958085      0.0000000000
0.1944499094      3354914.7462223587      0.1820000000      14.3358276495      0.1954858480      0.0000000000
0.2023315808      2788621.0720874351      0.1840000000      14.0726096095      0.2035457096      0.0000000000
0.2104643075      2325899.3612233452      0.1860000000      13.8382202946      0.2118728713      0.0000000000
0.2188446544      1946506.0405686817      0.1880000000      13.6292443155      0.2204647316      0.0000000000
0.2274691522      1634382.3597229400      0.1900000000      13.4427472331      0.2293186593      0.0000000000
0.2363342033      1376744.7909339345      0.1920000000      13.2761912109      0.2384318945      0.0000000000
0.2454361424      1163385.6985335972      0.1940000000      13.1273774787      0.2478016106      0.0000000000
0.2547712371       986128.3570028031      0.1960000000      12.9943954574      0.2574249125      0.0000000000
0.2643355443       838398.0605651926      0.1980000000      12.8755663377      0.2672986872      0.0000000000
0.2741251536       714897.8095616020      0.2000000000      12.7694312831      0.2774198530      0.0000000000
0.2841359595       611341.1132335496      0.2020000000      12.6746998551      0.2877851232      0.0000000000
0.2943637161       524249.8991450110      0.2040000000      12.5902307813      0.2983910597      0.0000000000
0.3048041347       450794.7246444187      0.2060000000      12.5150198375      0.3092341735      0.0000000000
0.3154527868       388665.5479186389      0.2080000000      12.4481737061      0.3203108214      0.0000000000
0.3263051227       335970.7887450843      0.2100000000      12.3888958929      0.3316172244      0.0000000000
0.3373565095       291157.3753643200      0.2120000000      12.3364776725      0.3431495047      0.0000000000
0.3486021750       252945.9425849731      0.2140000000      12.2902817918      0.3549036258      0.0000000000
0.3600372868       220280.2033943874      0.2160000000      12.2497399908      0.3668754732      0.0000000000
0.3716568795       192284.9587909768      0.2180000000      12.2143379085      0.3790607768      0.0000000000
0.3834559324       168233.6793081784      0.2200000000      12.1836151638      0.3914551905      0.0000000000
0.3954293326       147521.2574594995      0.2220000000      12.1571552818      0.4040542515      0.0000000000
0.4075718659       129642.3526953077      0.2240000000      12.1345792786      0.4168533695      0.0000000000
0.4198782871       114174.1469941337      0.2260000000      12.1155470499      0.4298478991      0.0000000000
0.4323432473       100761.6486320129      0.2280000000      12.0997463637      0.4430330617      0.0000000000
0.4449613777        89106.3589770265      0.2300000000      12.0868964360      0.4564040322      0.0000000000
0.4577272297        78956.4427112398      0.2320000000      12.0767388617      0.4699558745      0.0000000000
0.4706353357        70099.0958386936      0.2340000000      12.0690399133      0.4836836051      0.0000000000
0.4836801566        62353.9278122784      0.2360000000      12.0635829407      0.4975821350      0.0000000000
0.4968561600        55567.8350973829      0.2380000000      12.0601727365      0.5116463526      0.0000000000
0.5101577894        49610.5233554207      0.2400000000      12.0586304376      0.5258710901      0.0000000000
0.5235794433        44370.7779220862      0.2420000000      12.0587891024      0.5402510987      0.0000000000
0.5371155406        39753.6142747322      0.2440000000      12.0604980841      0.5547811192      0.0000000000
0.5507604861        35677.6428540540      0.2460000000      12.0636176311      0.5694558433      0.0000000000
0.5645086921        32073.0175023230      0.2480000000      12.0680193926      0.5842699361      0.0000000000
0.5783545868        28879.6686906668      0.2500000000      12.0735848159      0.5992180448      0.0000000000
0.5922926098        26045.8572349300      0.2520000000      12.0802058783      0.6142947930      0.0000000000
0.6063172235        23526.8875165562      0.2540000000      12.0877809590      0.6294947923      0.0000000000
0.6204229394        21284.1312956896      0.2560000000      12.0962185662      0.6448126708      0.0000000000
0.6346042708        19284.0804037726      0.2580000000      12.1054309707      0.6602430208      0.0000000000
0.6488557930        17497.6729515690      0.2600000000      12.1153390048      0.6757804646      0.0000000000
0.6631721520        15899.6526350930      0.2620000000      12.1258716442      0.6914196632      0.0000000000
0.6775479899        14467.9770436369      0.2640000000      12.1369581060      0.7071552351      0.0000000000
0.6919780565        13183.4497645605      0.2660000000      12.1485375374      0.7229818784      0.0000000000
0.7064571232        12029.2672011131      0.2680000000      12.1605499700      0.7388942758      0.0000000000
0.7209800554        10990.7360619107      0.2700000000      12.1729424658      0.7548871750      0.0000000000
0.7355417774        10054.9691813737      0.2720000000      12.1856651396      0.7709553500      0.0000000000
0.7501372819         9210.6434137924      0.2740000000      12.1986712535      0.7870936111      0.0000000000
0.7647616375         8447.8023030272      0.2760000000      12.2119174914      0.8032968145      0.0000000000
0.7794100035         7757.6794132747      0.2780000000      12.2253647144      0.8195598786      0.0000000000
0.7940776052         7132.5348753537      0.2800000000      12.2389750403      0.8358777569      0.0000000000
0.8087597709         6565.5370148581      0.2820000000      12.2527150748      0.8522454796      0.0000000000
0.8234519061         6050.6380501773      0.2840000000      12.2665528209      0.8686581256      0.0000000000
0.8381495088         5582.4817100421      0.2860000000      12.2804588822      0.8851108401      0.0000000000
0.8528481663         5156.3145174379      0.2880000000      12.2944056988      0.9015988315      0.0000000000
0.8675435683         4767.9162029195      0.2900000000      12.3083685654      0.9181173869      0.0000000000
0.8822314932         4413.5310009759      0.2920000000      12.3223239389      0.9346618572      0.0000000000
0.8969078171         4089.8138057976      0.2940000000      12.3362501023      0.9512276685      0.0000000000
0.9115685194         3793.7825440969      0.2960000000      12.3501274238      0.9678103286      0.0000000000
0.9262096720         3522.7730450893      0.2980000000      12.3639371066      0.9844054161      0.0000000000
0.9408274535         3274.4046943691      0.3000000000      12.3776624730      1.0010085970      0.0000000000
0.9554181394         3046.5456531074      0.3020000000      12.3912876618      1.0176156147      0.0000000000
0.9699781082         2837.2859943007      0.3040000000      12.4047982909      1.0342222975      0.0000000000
0.9845038391         2644.9118466647      0.3060000000      12.4181810420      1.0508245577      0.0000000000
0.9989919155         2467.8840161656      0.3080000000      12.4314238902      1.0674183955      0.0000000000
1.0134390217         2304.8180823704      0.3100000000      12.4445156176      1.0839998971      0.0000000000
1.0278419400         2154.4674967984      0.3120000000      12.4574458915      1.1005652319      0.0000000000
1.0421975587         2015.7093333704      0.3140000000      12.4702054325      1.1171106629      0.0000000000
1.0565028657         1887.5301449132      0.3160000000      12.4827857782      1.1336325403      0.0000000000
1.0707549481         1769.0144471496      0.3180000000      12.4951790677      1.1501273017      0.0000000000
1.0849509960         1659.3351013854      0.3200000000      12.5073785427      1.1665914783      0.0000000000
1.0990882930         1557.7428040927      0.3220000000      12.5193775433      1.1830216844      0.0000000000
1.1131642290         1463.5595508075      0.3240000000      12.5311708941      1.1994146334      0.0000000000
1.1271762846         1376.1698753076      0.3260000000      12.5427533652      1.2157671208      0.0000000000
1.1411220317         1295.0146801380      0.3280000000      12.5541197024      1.2320760256      0.0000000000
1.1549991537         1219.5873920485      0.3300000000      12.5652670620      1.2483383356      0.0000000000
1.1688054060         1149.4255245410      0.3320000000      12.5761906192      1.2645511016      0.0000000000
1.1825386574         1084.1097128777      0.3340000000      12.5868883992      1.2807114873      0.0000000000
1.1961968571         1023.2569537831      0.3360000000      12.5973575971      1.2968167313      0.0000000000
1.2097780392          966.5178241549      0.3380000000      12.6075953442      1.3128641539      0.0000000000
1.2232803380          913.5739684557      0.3400000000      12.6176004324      1.3288511755      0.0000000000
1.2367019699          864.1343880581      0.3420000000      12.6273715463      1.3447752968      0.0000000000
1.2500412250          817.9322700693      0.3440000000      12.6369063086      1.3606340895      0.0000000000
1.2632964968          774.7245957126      0.3460000000      12.6462050254      1.3764252327      0.0000000000
1.2764662496          734.2881083159      0.3480000000      12.6552669090      1.3921464746      0.0000000000
1.2895490239          696.4180250977      0.3500000000      12.6640910174      1.4077956409      0.0000000000
1.3025434494          660.9269755018      0.3520000000      12.6726778856      1.4233706503      0.0000000000
1.3154482286          627.6426613747      0.3540000000      12.6810277639      1.4388694961      0.0000000000
1.3282621299          596.4064542254      0.3560000000      12.6891400557      1.4542902389      0.0000000000
1.3409840117          567.0731350555      0.3580000000      12.6970163098      1.4696310365      0.0000000000
1.3536127945          539.5086614174      0.3600000000      12.7046571209      1.4848901111      0.0000000000
1.3661474697          513.5896167767      0.3620000000      12.7120633502      1.5000657604      0.0000000000
1.3785870954          489.2021928688      0.3640000000      12.7192358244      1.5151563542      0.0000000000
1.3909308000          466.2415665461      0.3660000000      12.7261759708      1.5301603385      0.0000000000
1.4031777738          444.6108779486      0.3680000000      12.7328850214      1.5450762270      0.0000000000
1.4153272728          424.2207513879      0.3700000000      12.7393646544      1.5599026060      0.0000000000
1.4273786119          404.9884741983      0.3720000000      12.7456163339      1.5746381270      0.0000000000
1.4393311689          386.8376738254      0.3740000000      12.7516420648      1.5892815124      0.0000000000
1.4511843779          369.6975892247      0.3760000000      12.7574437705      1.6038315479      0.0000000000
1.4629377210          353.5024471349      0.3780000000      12.7630223648      1.6182870733      0.0000000000
1.4745907516          338.1917476449      0.3800000000      12.7683809830      1.6326470113      0.0000000000
1.4861430627          323.7090318302      0.3820000000      12.7735211849      1.6469103300      0.0000000000
1.4975943056          310.0020923138      0.3840000000      12.7784454771      1.6610760660      0.0000000000
1.5089441742          297.0222265284      0.3860000000      12.7831554362      1.6751433049      0.0000000000
1.5201924189          284.7244414424      0.3880000000      12.7876539369      1.6891112010      0.0000000000
1.5313388300          273.0667053931      0.3900000000      12.7919429223      1.7029789554      0.0000000000
1.5423832455          262.0099891751      0.3920000000      12.7960247682      1.7167458272      0.0000000000
1.5533255494          251.5180233807      0.3940000000      12.7999022574      1.7304111318      0.0000000000
1.5641656593          241.5568308343      0.3960000000      12.8035770766      1.7439742257      0.0000000000
1.5749035452          232.0950037499      0.3980000000      12.8070525531      1.7574345311      0.0000000000
1.5855392055          223.1030239244      0.4000000000      12.8103305919      1.7707915052      0.0000000000
1.5960726838          214.5535123021      0.4020000000      12.8134141843      1.7840446629      0.0000000000
1.6065040526          206.4207408913      0.4040000000      12.8163052720      1.7971935560      0.0000000000
1.6168334272          198.6808496476      0.4060000000      12.8190069871      1.8102377915      0.0000000000
1.6270609500          191.3114110998      0.4080000000      12.8215215439      1.8231770123      0.0000000000
1.6371867975          184.2914814337      0.4100000000      12.8238514276      1.8360109058      0.0000000000
1.6472111786          177.6014875616      0.4120000000      12.8259993159      1.8487392029      0.0000000000
1.6571343331          171.2231302128      0.4140000000      12.8279680965      1.8613616756      0.0000000000
1.6669565245          165.1391906416      0.4160000000      12.8297599777      1.8738781295      0.0000000000
1.6766780480          159.3335976117      0.4180000000      12.8313777784      1.8862884130      0.0000000000
1.6862992227          153.7912451032      0.4200000000      12.8328239772      1.8985924077      0.0000000000
1.6958203925          148.4979684470      0.4220000000      12.8341010686      1.9107900313      0.0000000000
1.7052419296          143.4405327059      0.4240000000      12.8352121572      1.9228812407      0.0000000000
1.7145642189          138.6063611257      0.4260000000      12.8361588373      1.9348660129      0.0000000000
1.7237876788          133.9838046114      0.4280000000      12.8369444405      1.9467443722      0.0000000000
1.7329127418          129.5618216699      0.4300000000      12.8375712989      1.9585163654      0.0000000000
1.7419398606          125.3300386116      0.4320000000      12.8380417994      1.9701820694      0.0000000000
1.7508695085          121.2787080476      0.4340000000      12.8383585535      1.9817415926      0.0000000000
1.7597021756          117.3986550613      0.4360000000      12.8385240410      1.9931950694      0.0000000000
1.7684383703          113.6812470136      0.4380000000      12.8385409099      2.0045426635      0.0000000000
1.7770786156          110.1183332731      0.4400000000      12.8384115557      2.0157845619      0.0000000000
1.7856234472          106.7022072739      0.4420000000      12.8381379791      2.0269209738      0.0000000000
1.7940734215          103.4256704685      0.4440000000      12.8377231428      2.0379521404      0.0000000000
1.8024291052          100.2818920203      0.4460000000      12.8371694385      2.0488783216      0.0000000000
1.8106910750           97.2644020009      0.4480000000      12.8364788670      2.0596997961      0.0000000000
1.8188599236           94.3671246284      0.4500000000      12.8356539515      2.0704168689      0.0000000000
1.8269362552           91.5843314041      0.4520000000      12.8346973036      2.0810298663      0.0000000000
1.8349206810           88.9105676109      0.4540000000      12.8336108806      2.0915391287      0.0000000000
1.8428138240           86.3406950512      0.4560000000      12.8323969285      2.1019450186      0.0000000000
1.8506163187           83.8698772256      0.4580000000      12.8310580480      2.1122479195      0.0000000000
1.8583288056           81.4935137095      0.4600000000      12.8295963868      2.1224482283      0.0000000000
1.8659519347           79.2072614483      0.4620000000      12.8280142918      2.1325463608      0.0000000000
1.8734863579           77.0069648750      0.4640000000      12.8263132482      2.1425427417      0.0000000000
1.8809327434           74.8887615597      0.4660000000      12.8244961756      2.1524378226      0.0000000000
1.8882917585           72.8489393298      0.4680000000      12.8225648867      2.1622320611      0.0000000000
1.8955640791           70.8839956243      0.4700000000      12.8205215679      2.1719259315      0.0000000000
1.9027503861           68.9906133542      0.4720000000      12.8183684195      2.1815199217      0.0000000000
1.9098513635           67.1656296728      0.4740000000      12.8161072941      2.1910145297      0.0000000000
1.9168677006           65.4060505679      0.4760000000      12.8137401911      2.2004102665      0.0000000000
1.9238000917           63.7090471792      0.4780000000      12.8112693581      2.2097076566      0.0000000000
1.9306492321           62.0719087668      0.4800000000      12.8086965674      2.2189072318      0.0000000000
1.9374158225           60.4920876386      0.4820000000      12.8060240300      2.2280095377      0.0000000000
1.9441005631           58.9671311236      0.4840000000      12.8032533788      2.2370151251      0.0000000000
1.9507041591           57.4947368283      0.4860000000      12.8003867750      2.2459245583      0.0000000000
1.9572273148           56.0726918099      0.4880000000      12.7974258783      2.2547384060      0.0000000000
1.9636707379           54.6989073347      0.4900000000      12.7943727074      2.2634572486      0.0000000000
1.9700351355           53.3713837150      0.4920000000      12.7912289437      2.2720816712      0.0000000000
1.9763212161           52.0882229735      0.4940000000      12.7879963916      2.2806122675      0.0000000000
1.9825296891           50.8476216848      0.4960000000      12.7846769635      2.2890496382      0.0000000000
1.9886612623           49.6478507622      0.4980000000      12.7812722160      2.2973943883      0.0000000000
1.9947166455           48.4872789196      0.5000000000      12.7777841345      2.3056471319      0.0000000000
2.0006965446           47.3643277146      0.5020000000      12.7742140447      2.3138084831      0.0000000000
2.0066016691           46.2775224197      0.5040000000      12.7705640712      2.3218790681      0.0000000000
2.0124327239           45.2254312325      0.5060000000      12.7668356745      2.3298595119      0.0000000000
2.0181904112           44.2066845428      0.5080000000      12.7630300510      2.3377504424      0.0000000000
2.0238754364           43.2200008115      0.5100000000      12.7591492421      2.3455524977      0.0000000000
2.0294885007           42.2641434298      0.5120000000      12.7551948371      2.3532663160      0.0000000000
2.0350303031           41.3379298208      0.5140000000      12.7511683469      2.3608925388      0.0000000000
2.0405015406           40.4402332869      0.5160000000      12.7470713533      2.3684318102      0.0000000000
2.0459029052           39.5699597648      0.5180000000      12.7429048676      2.3758847735      0.0000000000
2.0512350913           38.7260948094      0.5200000000      12.7386708670      2.3832520808      0.0000000000
2.0564987882           37.9076538897      0.5220000000      12.7343708653      2.3905343834      0.0000000000
2.0616946790           37.1136794477      0.5240000000      12.7300057330      2.3977323293      0.0000000000
2.0668234497           36.3432846620      0.5260000000      12.7255774318      2.4048465762      0.0000000000
2.0718857784           35.5955989808      0.5280000000      12.7210870523      2.4118777765      0.0000000000
