# M(M_sol)                 Lambda          n_Bc(fm^-3)         R(km)            m_B(M_sol)        m_Bquar/M_B
0.1516814674     38328883.0589005873      0.1060000000      22.6218522102      0.1518989790      0.0000000000
0.1564714346     32678796.0401398391      0.1080000000      21.8628927040      0.1567538586      0.0000000000
0.1613642447     27970192.7487305067      0.1100000000      21.1875108294      0.1617163926      0.0000000000
0.1663559369     24025381.9778350703      0.1120000000      20.5837168852      0.1667827639      0.0000000000
0.1714104118     20724388.6472086124      0.1140000000      20.0448717106      0.1719164938      0.0000000000
0.1764609561     17978328.8034859486      0.1160000000      19.5672708409      0.1770498756      0.0000000000
0.1815464390     15659824.3907005414      0.1180000000      19.1380595390      0.1822224401      0.0000000000
0.1866761331     13687926.4676364381      0.1200000000      18.7497205352      0.1874436959      0.0000000000
0.1918534659     12001758.4751619268      0.1220000000      18.3966122124      0.1927172243      0.0000000000
0.1970798662     10553443.3374738581      0.1240000000      18.0742131533      0.1980445797      0.0000000000
0.2023558305      9304551.6237032656      0.1260000000      17.7787970076      0.2034263708      0.0000000000
0.2076813489      8223844.8385299621      0.1280000000      17.5072436846      0.2088626924      0.0000000000
0.2130561109      7285678.7868615473      0.1300000000      17.2569085550      0.2143533329      0.0000000000
0.2184796161      6468847.3059102036      0.1320000000      17.0255303250      0.2198978877      0.0000000000
0.2239512385      5755700.5111946361      0.1340000000      16.8111600205      0.2254958229      0.0000000000
0.2294702675      5131474.0303183366      0.1360000000      16.6121085492      0.2311465177      0.0000000000
0.2350359335      4583749.7768220147      0.1380000000      16.4269018389      0.2368492900      0.0000000000
0.2406474265      4102047.0568371136      0.1400000000      16.2542480341      0.2426034149      0.0000000000
0.2463039098      3677479.6620244663      0.1420000000      16.0930097903      0.2484081391      0.0000000000
0.2520045274      3302489.3236448015      0.1440000000      15.9421809133      0.2542626881      0.0000000000
0.2577484128      2970624.4905503374      0.1460000000      15.8008681153      0.2601662749      0.0000000000
0.2635346938      2676362.6987288320      0.1480000000      15.6682753937      0.2661181051      0.0000000000
0.2693624963      2414962.1314059338      0.1500000000      15.5436911755      0.2721173810      0.0000000000
0.2752309489      2182340.8767646546      0.1520000000      15.4264772033      0.2781633054      0.0000000000
0.2811391916      1974975.6811969897      0.1540000000      15.3160592987      0.2842550917      0.0000000000
0.2870863501      1789818.8888632490      0.1560000000      15.2119197657      0.2903919367      0.0000000000
0.2930715797      1624227.2388128072      0.1580000000      15.1135902540      0.2965730655      0.0000000000
0.2990940396      1475903.5738940823      0.1600000000      15.0206462131      0.3027977061      0.0000000000
0.3051529005      1342847.4181922057      0.1620000000      14.9327018917      0.3090650962      0.0000000000
0.3112473447      1223312.7925106992      0.1640000000      14.8494058393      0.3153744839      0.0000000000
0.3173765689      1115773.3952193975      0.1660000000      14.7704375851      0.3217251303      0.0000000000
0.3235397827      1018892.2798719659      0.1680000000      14.6955040017      0.3281163080      0.0000000000
0.3297362110       931495.8230865129      0.1700000000      14.6243365120      0.3345473041      0.0000000000
0.3359650931       852552.5472889113      0.1720000000      14.5566887456      0.3410174186      0.0000000000
0.3422256753       781154.2071065527      0.1740000000      14.4923342070      0.3475259571      0.0000000000
0.3485172413       716499.4900764305      0.1760000000      14.4310641648      0.3540722622      0.0000000000
0.3548390680       657880.7267723782      0.1780000000      14.3726863590      0.3606556684      0.0000000000
0.3611904549       604671.7117490304      0.1800000000      14.3170231447      0.3672755311      0.0000000000
0.3675707156       556317.6522458842      0.1820000000      14.2639102524      0.3739312196      0.0000000000
0.3739791824       512326.1391829295      0.1840000000      14.2131955318      0.3806221207      0.0000000000
0.3804151916       472259.6201689431      0.1860000000      14.1647378449      0.3873476238      0.0000000000
0.3868781036       435728.8268322924      0.1880000000      14.1184063322      0.3941071421      0.0000000000
0.3933672887       402386.8284375580      0.1900000000      14.0740790557      0.4009000975      0.0000000000
0.3998821320       371924.0805395567      0.1920000000      14.0316428658      0.4077259258      0.0000000000
0.4064220296       344064.1182030852      0.1940000000      13.9909921115      0.4145840729      0.0000000000
0.4129863920       318559.5447708507      0.1960000000      13.9520283544      0.4214739985      0.0000000000
0.4195746400       295188.9022066648      0.1980000000      13.9146596571      0.4283951714      0.0000000000
0.4261862070       273753.5171036748      0.2000000000      13.8788000204      0.4353470725      0.0000000000
0.4328205374       254075.1490599032      0.2020000000      13.8443692099      0.4423291925      0.0000000000
0.4394770853       235993.5503675775      0.2040000000      13.8112919265      0.4493410314      0.0000000000
0.4461553157       219364.5346203888      0.2060000000      13.7794976754      0.4563820989      0.0000000000
0.4528547027       204058.2589490789      0.2080000000      13.7489203112      0.4634519132      0.0000000000
0.4595747291       189957.6390298175      0.2100000000      13.7194976852      0.4705500002      0.0000000000
0.4663148868       176956.9698706458      0.2120000000      13.6911715744      0.4776758942      0.0000000000
0.4730746751       164960.7276962493      0.2140000000      13.6638869777      0.4848291362      0.0000000000
0.4798536005       153882.5909317391      0.2160000000      13.6375923934      0.4920092731      0.0000000000
0.4866511770       143644.3192309753      0.2180000000      13.6122392125      0.4992158589      0.0000000000
0.4934669245       134175.0398517894      0.2200000000      13.5877815668      0.5064484522      0.0000000000
0.5003003691       125410.4669410192      0.2220000000      13.5641763192      0.5137066172      0.0000000000
0.5071510419       117292.2256844338      0.2240000000      13.5413826698      0.5209899221      0.0000000000
0.5140184798       109767.2455980896      0.2260000000      13.5193621740      0.5282979400      0.0000000000
0.5209022231       102787.2855531722      0.2280000000      13.4980784023      0.5356302464      0.0000000000
0.5278018168        96308.4019284162      0.2300000000      13.4774969927      0.5429864204      0.0000000000
0.5347168100        90290.5419111314      0.2320000000      13.4575853841      0.5503660444      0.0000000000
0.5416467541        84697.1993660213      0.2340000000      13.4383127800      0.5577687021      0.0000000000
0.5485912039        79495.0436913961      0.2360000000      13.4196499940      0.5651939792      0.0000000000
0.5555497166        74653.6184043556      0.2380000000      13.4015693883      0.5726414631      0.0000000000
0.5625218515        70145.0818429499      0.2400000000      13.3840446669      0.5801107420      0.0000000000
0.5695071700        65943.9638611375      0.2420000000      13.3670509863      0.5876014050      0.0000000000
0.5765052345        62026.9363042539      0.2440000000      13.3505647229      0.5951130414      0.0000000000
0.5835156092        58372.6103143267      0.2460000000      13.3345633614      0.6026452406      0.0000000000
0.5905378586        54961.3875836680      0.2480000000      13.3190256283      0.6101975915      0.0000000000
0.5975715482        51775.2790977113      0.2500000000      13.3039312298      0.6177696822      0.0000000000
0.6046162442        48797.7368009776      0.2520000000      13.2892608014      0.6253611009      0.0000000000
0.6116715123        46013.5848584342      0.2540000000      13.2749960757      0.6329714336      0.0000000000
0.6187369187        43408.8390176492      0.2560000000      13.2611194206      0.6406002654      0.0000000000
0.6258120291        40970.6443924353      0.2580000000      13.2476142671      0.6482471797      0.0000000000
0.6328964091        38687.1502546325      0.2600000000      13.2344647017      0.6559117582      0.0000000000
0.6399896237        36547.4363213410      0.2620000000      13.2216555407      0.6635935806      0.0000000000
0.6470912369        34541.4346731635      0.2640000000      13.2091723693      0.6712922245      0.0000000000
0.6542008123        32659.8504568851      0.2660000000      13.1970013597      0.6790072650      0.0000000000
0.6613179125        30894.0996228849      0.2680000000      13.1851293497      0.6867382750      0.0000000000
0.6684420987        29236.2521500049      0.2700000000      13.1735437488      0.6944848246      0.0000000000
0.6755729316        27678.9743288372      0.2720000000      13.1622325065      0.7022464814      0.0000000000
0.6827099704        26215.4840212304      0.2740000000      13.1511841946      0.7100228101      0.0000000000
0.6898527730        24839.4960090865      0.2760000000      13.1403877081      0.7178133726      0.0000000000
0.6970008966        23545.1950867621      0.2780000000      13.1298326243      0.7256177282      0.0000000000
0.7041538963        22327.1890959251      0.2800000000      13.1195088189      0.7334354326      0.0000000000
0.7113113269        21180.4753179904      0.2820000000      13.1094066937      0.7412660393      0.0000000000
0.7184727411        20100.4139965939      0.2840000000      13.0995169714      0.7491090982      0.0000000000
0.7256376909        19082.6985689938      0.2860000000      13.0898308364      0.7569641564      0.0000000000
0.7328057265        18123.3274324145      0.2880000000      13.0803397816      0.7648307579      0.0000000000
0.7399763976        17218.5815423041      0.2900000000      13.0710357054      0.7727084439      0.0000000000
0.7471492522        16365.0024017880      0.2920000000      13.0619107961      0.7805967524      0.0000000000
0.7543238373        15559.3731372476      0.2940000000      13.0529575678      0.7884952187      0.0000000000
0.7614996990        14798.6998027461      0.2960000000      13.0441688692      0.7964033748      0.0000000000
0.7686763831        14080.1891699383      0.2980000000      13.0355377772      0.8043207512      0.0000000000
0.7758534323        13401.2477539044      0.3000000000      13.0270576973      0.8122468729      0.0000000000
0.7830303908        12759.4497065041      0.3020000000      13.0187222976      0.8201812649      0.0000000000
0.7902068012        12152.5355966595      0.3040000000      13.0105254391      0.8281234484      0.0000000000
0.7973822053        11578.3977087559      0.3060000000      13.0024612499      0.8360729422      0.0000000000
0.8045561451        11035.0665149940      0.3080000000      12.9945241283      0.8440292631      0.0000000000
0.8117281612        10520.7050421460      0.3100000000      12.9867086455      0.8519919249      0.0000000000
0.8188977948        10033.5946515898      0.3120000000      12.9790095801      0.8599604397      0.0000000000
0.8260645865         9572.1297521595      0.3140000000      12.9714219505      0.8679343173      0.0000000000
0.8332280770         9134.8081889574      0.3160000000      12.9639408838      0.8759130658      0.0000000000
0.8403878070         8720.2247767366      0.3180000000      12.9565617752      0.8838961911      0.0000000000
0.8475433177         8327.0646215310      0.3200000000      12.9492801715      0.8918831978      0.0000000000
0.8546941502         7954.0953576371      0.3220000000      12.9420917276      0.8998735886      0.0000000000
0.8618398467         7600.1630193770      0.3240000000      12.9349923608      0.9078668653      0.0000000000
0.8689799497         7264.1869091065      0.3260000000      12.9279780794      0.9158625279      0.0000000000
0.8761140024         6945.1528453646      0.3280000000      12.9210449993      0.9238600754      0.0000000000
0.8832415492         6642.1096997439      0.3300000000      12.9141894860      0.9318590063      0.0000000000
0.8903621356         6354.1648892577      0.3320000000      12.9074079469      0.9398588177      0.0000000000
0.8974753081         6080.4808769323      0.3340000000      12.9006969720      0.9478590065      0.0000000000
0.9045806148         5820.2716647383      0.3360000000      12.8940532529      0.9558590688      0.0000000000
0.9116776053         5572.7972744739      0.3380000000      12.8874736008      0.9638585009      0.0000000000
0.9187658308         5337.3642617451      0.3400000000      12.8809549615      0.9718567984      0.0000000000
0.9258448445         5113.3191184746      0.3420000000      12.8744943632      0.9798534572      0.0000000000
0.9329142015         4900.0483457270      0.3440000000      12.8680889719      0.9878479734      0.0000000000
0.9399734590         4696.9742258241      0.3460000000      12.8617360509      0.9958398434      0.0000000000
0.9470221765         4503.5532583281      0.3480000000      12.8554329392      1.0038285641      0.0000000000
0.9540599160         4319.2735878176      0.3500000000      12.8491770762      1.0118136331      0.0000000000
0.9610862419         4143.6534165506      0.3520000000      12.8429660112      1.0197945490      0.0000000000
0.9681007217         3976.2387582639      0.3540000000      12.8367973742      1.0277708112      0.0000000000
0.9751029252         3816.6019712559      0.3560000000      12.8306688929      1.0357419203      0.0000000000
0.9820924257         3664.3395232619      0.3580000000      12.8245783690      1.0437073785      0.0000000000
0.9890687994         3519.0710130542      0.3600000000      12.8185236526      1.0516666894      0.0000000000
0.9960316259         3380.4375486817      0.3620000000      12.8125027314      1.0596193583      0.0000000000
1.0029804880         3248.1007733163      0.3640000000      12.8065136125      1.0675648921      0.0000000000
1.0099149721         3121.7414422532      0.3660000000      12.8005543997      1.0755028000      0.0000000000
1.0168346684         3001.0572089168      0.3680000000      12.7946232577      1.0834325933      0.0000000000
1.0237391707         2885.7636971958      0.3700000000      12.7887184103      1.0913537854      0.0000000000
1.0306280781         2775.5909590162      0.3720000000      12.7828381951      1.0992658939      0.0000000000
1.0375009900         2670.2850407687      0.3740000000      12.7769809516      1.1071684347      0.0000000000
1.0443575134         2569.6051730941      0.3760000000      12.7711450790      1.1150609304      0.0000000000
1.0511972587         2473.3240826728      0.3780000000      12.7653291036      1.1229429055      0.0000000000
1.0580198402         2381.2263707167      0.3800000000      12.7595315026      1.1308138871      0.0000000000
1.0648248772         2293.1083629038      0.3820000000      12.7537509211      1.1386734060      0.0000000000
1.0716119930         2208.7775041867      0.3840000000      12.7479859803      1.1465209960      0.0000000000
1.0783808158         2128.0514400065      0.3860000000      12.7422353704      1.1543561944      0.0000000000
1.0851309787         2050.7572598719      0.3880000000      12.7364978338      1.1621785420      0.0000000000
1.0918621195         1976.7313091357      0.3900000000      12.7307721769      1.1699875836      0.0000000000
1.0985738807         1905.8186353551      0.3920000000      12.7250572133      1.1777828676      0.0000000000
1.1052659102         1837.8721556509      0.3940000000      12.7193518426      1.1855639463      0.0000000000
1.1119378607         1772.7525984753      0.3960000000      12.7136549728      1.1933303763      0.0000000000
1.1185893902         1710.3278611346      0.3980000000      12.7079655815      1.2010817182      0.0000000000
1.1252201619         1650.4726552786      0.4000000000      12.7022826864      1.2088175369      0.0000000000
1.1318298442         1593.0679396871      0.4020000000      12.6966052946      1.2165374019      0.0000000000
1.1384181110         1538.0010293174      0.4040000000      12.6909325264      1.2242408869      0.0000000000
1.1449846414         1485.1647671822      0.4060000000      12.6852634950      1.2319275704      0.0000000000
1.1515291202         1434.4574581262      0.4080000000      12.6795973497      1.2395970355      0.0000000000
1.1580512377         1385.7824877700      0.4100000000      12.6739332845      1.2472488702      0.0000000000
1.1645506895         1339.0481596526      0.4120000000      12.6682705342      1.2548826672      0.0000000000
1.1710271771         1294.1672073680      0.4140000000      12.6626083272      1.2624980243      0.0000000000
1.1774804075         1251.0567864711      0.4160000000      12.6569459856      1.2700945442      0.0000000000
1.1839100936         1209.6381933927      0.4180000000      12.6512828045      1.2776718347      0.0000000000
1.1903159537         1169.8364291927      0.4200000000      12.6456181613      1.2852295091      0.0000000000
1.1966977121         1131.5802495234      0.4220000000      12.6399513870      1.2927671855      0.0000000000
1.2030550987         1094.8019083784      0.4240000000      12.6342819304      1.3002844875      0.0000000000
1.2093878494         1059.4368720076      0.4260000000      12.6286092043      1.3077810442      0.0000000000
1.2156957057         1025.4238380051      0.4280000000      12.6229326648      1.3152564899      0.0000000000
1.2219784151          992.7042103026      0.4300000000      12.6172518141      1.3227104648      0.0000000000
1.2282357309          961.2224388618      0.4320000000      12.6115661390      1.3301426139      0.0000000000
1.2344674122          930.9255079530      0.4340000000      12.6058751839      1.3375525885      0.0000000000
1.2406732241          901.7629097743      0.4360000000      12.6001785005      1.3449400452      0.0000000000
1.2468529373          873.6865449617      0.4380000000      12.5944756592      1.3523046462      0.0000000000
1.2530063286          846.6505766065      0.4400000000      12.5887662738      1.3596460596      0.0000000000
1.2591331806          820.6111649260      0.4420000000      12.5830499518      1.3669639593      0.0000000000
1.2652332818          795.5267488466      0.4440000000      12.5773263413      1.3742580245      0.0000000000
1.2713064263          771.3575689792      0.4460000000      12.5715951087      1.3815279407      0.0000000000
1.2773524144          748.0656658293      0.4480000000      12.5658559165      1.3887733990      0.0000000000
1.2833710520          725.6148583397      0.4500000000      12.5601084673      1.3959940963      0.0000000000
1.2893621508          703.9706451841      0.4520000000      12.5543524877      1.4031897354      0.0000000000
1.2953255283          683.1000822577      0.4540000000      12.5485877080      1.4103600250      0.0000000000
1.3012610078          662.9716458842      0.4560000000      12.5428138768      1.4175046796      0.0000000000
1.3071684184          643.5553298070      0.4580000000      12.5370307482      1.4246234198      0.0000000000
1.3130475947          624.8224367946      0.4600000000      12.5312381281      1.4317159717      0.0000000000
1.3188983771          606.7455560084      0.4620000000      12.5254358142      1.4387820677      0.0000000000
1.3247206117          589.2984988546      0.4640000000      12.5196235863      1.4458214458      0.0000000000
