# M(M_sol)                 Lambda          n_Bc(fm^-3)         R(km)            m_B(M_sol)        m_Bquar/M_B
0.1557145994     42395920.5356761888      0.0910000000      23.2666003385      0.1560142097      0.0000000000
0.1618880926     35256805.0732676685      0.0930000000      22.3781849168      0.1622782865      0.0000000000
0.1681535557     29521593.6413432956      0.0950000000      21.6127808671      0.1686410704      0.0000000000
0.1745059174     24868476.6364372112      0.0970000000      20.9475987748      0.1750975999      0.0000000000
0.1809408022     21061635.1538388878      0.0990000000      20.3650587601      0.1816436110      0.0000000000
0.1874544313     17924517.5140557326      0.1010000000      19.8513925942      0.1882754367      0.0000000000
0.1940435466     15322695.3748170808      0.1030000000      19.3956736254      0.1949899333      0.0000000000
0.2007053477     13152369.7016039025      0.1050000000      18.9891237165      0.2017844162      0.0000000000
0.2074374381     11332480.2043341529      0.1070000000      18.6246173278      0.2086566080      0.0000000000
0.2142377873      9799085.1046913359      0.1090000000      18.2963116479      0.2156046003      0.0000000000
0.2211046840      8501323.3813017923      0.1110000000      17.9993749897      0.2226268075      0.0000000000
0.2280254184      7400074.2934132973      0.1130000000      17.7301956568      0.2297103789      0.0000000000
0.2348602775      6478823.1133298753      0.1150000000      17.4898854094      0.2367122556      0.0000000000
0.2416634184      5696866.3119775318      0.1170000000      17.2725065786      0.2436877480      0.0000000000
0.2484618225      5027005.7500664536      0.1190000000      17.0742388354      0.2506644631      0.0000000000
0.2552669863      4449653.8772973549      0.1210000000      16.8924264518      0.2576541942      0.0000000000
0.2620860981      3949563.2172010881      0.1230000000      16.7249810006      0.2646643467      0.0000000000
0.2689244526      3514537.1795084830      0.1250000000      16.5701935692      0.2717004032      0.0000000000
0.2757863418      3134669.1513227471      0.1270000000      16.4266363771      0.2787668339      0.0000000000
0.2826754627      2801823.6520123775      0.1290000000      16.2931004096      0.2858675121      0.0000000000
0.2895951252      2509263.8538418808      0.1310000000      16.1685519471      0.2930059257      0.0000000000
0.2965483797      2251370.0568165486      0.1330000000      16.0520996714      0.3001853086      0.0000000000
0.3035380825      2023427.8240382948      0.1350000000      15.9429709605      0.3074087058      0.0000000000
0.3105669438      1821458.5756123886      0.1370000000      15.8404910624      0.3146790232      0.0000000000
0.3176375563      1642090.0571010031      0.1390000000      15.7440690882      0.3219990565      0.0000000000
0.3247524141      1482449.9080685026      0.1410000000      15.6531843406      0.3293715100      0.0000000000
0.3319139237      1340081.9414738580      0.1430000000      15.5673764277      0.3367990080      0.0000000000
0.3391244134      1212877.7428727923      0.1450000000      15.4862367185      0.3442841046      0.0000000000
0.3463861386      1099020.8071051168      0.1470000000      15.4094013594      0.3518292883      0.0000000000
0.3537012829       996941.1009951988      0.1490000000      15.3365451419      0.3594369836      0.0000000000
0.3610719620       905277.1080727213      0.1510000000      15.2673767017      0.3671095542      0.0000000000
0.3685002215       822844.7567618880      0.1530000000      15.2016340228      0.3748493014      0.0000000000
0.3759880396       748611.3006948322      0.1550000000      15.1390809361      0.3826584661      0.0000000000
0.3835373252       681673.5157574894      0.1570000000      15.0795040688      0.3905392269      0.0000000000
0.3911499220       621239.9015539308      0.1590000000      15.0227102101      0.3984937041      0.0000000000
0.3988275827       566614.5288604834      0.1610000000      14.9685237704      0.4065239328      0.0000000000
0.4065720045       517184.5487347179      0.1630000000      14.9167847829      0.4146318996      0.0000000000
0.4143848041       472409.1138756906      0.1650000000      14.8673475914      0.4228195165      0.0000000000
0.4222675205       431809.5813148650      0.1670000000      14.8200786740      0.4310886234      0.0000000000
0.4302216132       394961.9369543301      0.1690000000      14.7748559301      0.4394409860      0.0000000000
0.4382484609       361489.5354944326      0.1710000000      14.7315668793      0.4478782945      0.0000000000
0.4463493593       331057.4538313963      0.1730000000      14.6901083460      0.4564021604      0.0000000000
0.4545255191       303367.2160550376      0.1750000000      14.6503849630      0.4650141152      0.0000000000
0.4627780654       278152.4266522398      0.1770000000      14.6123086309      0.4737156082      0.0000000000
0.4711080336       255174.9869245015      0.1790000000      14.5757977169      0.4825080029      0.0000000000
0.4795163667       234221.7106713518      0.1810000000      14.5407764512      0.4913925732      0.0000000000
0.4880039276       215101.5497025933      0.1830000000      14.5071743940      0.5003705164      0.0000000000
0.4965714762       197642.9604009929      0.1850000000      14.4749259039      0.5094429283      0.0000000000
0.5052196802       181691.8081996388      0.1870000000      14.4439696822      0.5186108148      0.0000000000
0.5139491138       167109.3387968770      0.1890000000      14.4142482502      0.5278750895      0.0000000000
0.5227602550       153770.6007613173      0.1910000000      14.3857079162      0.5372365706      0.0000000000
0.5316534850       141562.8642124477      0.1930000000      14.3582980801      0.5466959798      0.0000000000
0.5406290875       130384.3620898434      0.1950000000      14.3319711649      0.5562539414      0.0000000000
0.5496872481       120143.1342034500      0.1970000000      14.3066823387      0.5659109808      0.0000000000
0.5588280547       110755.9598793013      0.1990000000      14.2823890831      0.5756675245      0.0000000000
0.5680514960       102147.5308545464      0.2010000000      14.2590513590      0.5855238980      0.0000000000
0.5773574626        94249.5782023974      0.2030000000      14.2366310270      0.5954803261      0.0000000000
0.5867457461        87000.1928471708      0.2050000000      14.2150918874      0.6055369322      0.0000000000
0.5962160404        80343.1909423368      0.2070000000      14.1943995081      0.6156937382      0.0000000000
0.6057679425        74227.5143310462      0.2090000000      14.1745209633      0.6259506652      0.0000000000
0.6154009511        68606.7881791404      0.2110000000      14.1554249249      0.6363075313      0.0000000000
0.6251144700        63438.8093069215      0.2130000000      14.1370813769      0.6467640546      0.0000000000
0.6349078076        58685.1740740967      0.2150000000      14.1194615326      0.6573198519      0.0000000000
0.6447801773        54310.9057704523      0.2170000000      14.1025377868      0.6679744389      0.0000000000
0.6547307015        50284.1331478797      0.2190000000      14.0862836265      0.6787272331      0.0000000000
0.6647584103        46575.8019756757      0.2210000000      14.0706735539      0.6895775523      0.0000000000
0.6748622451        43159.4009105874      0.2230000000      14.0556829295      0.7005246176      0.0000000000
0.6850410585        40010.7374606552      0.2250000000      14.0412880689      0.7115675528      0.0000000000
0.6952936191        37107.7199531592      0.2270000000      14.0274661001      0.7227053882      0.0000000000
0.7056186104        34430.1693409310      0.2290000000      14.0141949651      0.7339370598      0.0000000000
0.7160146346        31959.6370980431      0.2310000000      14.0014531784      0.7452614117      0.0000000000
0.7264802151        29679.2587973201      0.2330000000      13.9892200989      0.7566771986      0.0000000000
0.7370137986        27573.6044140359      0.2350000000      13.9774756452      0.7681830875      0.0000000000
0.7476137581        25628.5555849940      0.2370000000      13.9662004046      0.7797776597      0.0000000000
0.7582783946        23831.1843620880      0.2390000000      13.9553754906      0.7914594127      0.0000000000
0.7690059408        22169.6552991512      0.2410000000      13.9449826574      0.8032267629      0.0000000000
0.7797945637        20633.1208698062      0.2430000000      13.9350040757      0.8150780480      0.0000000000
0.7906423676        19211.6403482992      0.2450000000      13.9254225419      0.8270115298      0.0000000000
0.8015473968        17896.1006388954      0.2470000000      13.9162212503      0.8390253962      0.0000000000
0.8125076390        16678.1447830404      0.2490000000      13.9073839710      0.8511177647      0.0000000000
0.8235210291        15550.1019300691      0.2510000000      13.8988948673      0.8632866852      0.0000000000
0.8345854507        14504.9361290629      0.2530000000      13.8907385267      0.8755301418      0.0000000000
0.8456987417        13536.1846966764      0.2550000000      13.8829000335      0.8878460579      0.0000000000
0.8568586943        12637.9156567587      0.2570000000      13.8753648304      0.9002322961      0.0000000000
0.8680630622        11804.6758760587      0.2590000000      13.8681187761      0.9126866647      0.0000000000
0.8793095607        11031.4578882489      0.2610000000      13.8611481526      0.9252069187      0.0000000000
0.8905958722        10313.6566151665      0.2630000000      13.8544396211      0.9377907635      0.0000000000
0.9019196477         9647.0382509268      0.2650000000      13.8479801735      0.9504358581      0.0000000000
0.9132785118         9027.7085728100      0.2670000000      13.8417572492      0.9631398185      0.0000000000
0.9246700643         8452.0848246810      0.2690000000      13.8357585682      0.9759002202      0.0000000000
0.9360918857         7916.8686906230      0.2710000000      13.8299723066      0.9887146030      0.0000000000
0.9475415376         7419.0245561109      0.2730000000      13.8243868523      1.0015804721      0.0000000000
0.9590165682         6955.7564753816      0.2750000000      13.8189910143      1.0144953028      0.0000000000
0.9705145146         6524.4891554869      0.2770000000      13.8137739573      1.0274565434      0.0000000000
0.9820329060         6122.8486921552      0.2790000000      13.8087251454      1.0404616184      0.0000000000
0.9935692662         5748.6477590302      0.2810000000      13.8038343395      1.0535079311      0.0000000000
1.0051211177         5399.8691490791      0.2830000000      13.7990916514      1.0665928675      0.0000000000
1.0166859838         5074.6523336481      0.2850000000      13.7944874998      1.0797137990      0.0000000000
1.0282613914         4771.2807501290      0.2870000000      13.7900126053      1.0928680852      0.0000000000
1.0398448743         4488.1702202051      0.2890000000      13.7856579626      1.1060530774      0.0000000000
1.0514339754         4223.8580823782      0.2910000000      13.7814149019      1.1192661209      0.0000000000
1.0630262500         3976.9937008261      0.2930000000      13.7772750655      1.1325045588      0.0000000000
1.0746192672         3746.3292678096      0.2950000000      13.7732302802      1.1457657335      0.0000000000
1.0862106131         3530.7122389947      0.2970000000      13.7692727361      1.1590469902      0.0000000000
1.0977978935         3329.0763418820      0.2990000000      13.7653948941      1.1723456802      0.0000000000
1.1093787351         3140.4363340837      0.3010000000      13.7615894539      1.1856591619      0.0000000000
1.1209507885         2963.8807550827      0.3030000000      13.7578493746      1.1989848045      0.0000000000
1.1325117301         2798.5658268467      0.3050000000      13.7541679364      1.2123199904      0.0000000000
1.1440592640         2643.7112142712      0.3070000000      13.7505385847      1.2256621171      0.0000000000
1.1555911230         2498.5938850324      0.3090000000      13.7469550795      1.2390085987      0.0000000000
1.1671050718         2362.5446410988      0.3110000000      13.7434113863      1.2523568699      0.0000000000
1.1785989084         2234.9430630436      0.3130000000      13.7399017601      1.2657043871      0.0000000000
1.1900704644         2115.2143110676      0.3150000000      13.7364205959      1.2790486301      0.0000000000
1.2015176080         2002.8255777129      0.3170000000      13.7329626348      1.2923871045      0.0000000000
1.2129382443         1897.2825312823      0.3190000000      13.7295227218      1.3057173431      0.0000000000
1.2243303172         1798.1266888954      0.3210000000      13.7260960118      1.3190369081      0.0000000000
1.2356918105         1704.9322819122      0.3230000000      13.7226778196      1.3323433927      0.0000000000
1.2470207483         1617.3044975814      0.3250000000      13.7192636929      1.3456344218      0.0000000000
1.2583151970         1534.8763319176      0.3270000000      13.7158493761      1.3589076546      0.0000000000
1.2695732655         1457.3069052530      0.3290000000      13.7124308004      1.3721607854      0.0000000000
1.2807931063         1384.2794207179      0.3310000000      13.7090041029      1.3853915450      0.0000000000
1.2919729157         1315.4994585881      0.3330000000      13.7055655790      1.3985977011      0.0000000000
1.3031109369         1250.6930992888      0.3350000000      13.7021117517      1.4117770631      0.0000000000
1.3142054538         1189.6055253673      0.3370000000      13.6986392572      1.4249274739      0.0000000000
1.3252548002         1131.9996795429      0.3390000000      13.6951449696      1.4380468225      0.0000000000
1.3362573553         1077.6547507021      0.3410000000      13.6916259015      1.4511330381      0.0000000000
1.3472115443         1026.3652326003      0.3430000000      13.6880792083      1.4641840916      0.0000000000
1.3581158393          977.9395205187      0.3450000000      13.6845022207      1.4771979972      0.0000000000
1.3689687596          932.1992122115      0.3470000000      13.6808924355      1.4901728128      0.0000000000
1.3797688710          888.9777952741      0.3490000000      13.6772474529      1.5031066401      0.0000000000
1.3905147867          848.1201712082      0.3510000000      13.6735650671      1.5159976257      0.0000000000
1.4012051669          809.4815295348      0.3530000000      13.6698431891      1.5288439612      0.0000000000
1.4118387186          772.9267164550      0.3550000000      13.6660798292      1.5416438830      0.0000000000
1.4224141955          738.3296287871      0.3570000000      13.6622731943      1.5543956740      0.0000000000
1.4329303979          705.5723972156      0.3590000000      13.6584215651      1.5670976622      0.0000000000
1.4433861724          674.5450107713      0.3610000000      13.6545233503      1.5797482215      0.0000000000
1.4537804116          645.1445346406      0.3630000000      13.6505770889      1.5923457724      0.0000000000
1.4641120539          617.2748201039      0.3650000000      13.6465814286      1.6048887810      0.0000000000
1.4743800822          590.8458901317      0.3670000000      13.6425351131      1.6173757593      0.0000000000
1.4845835261          565.7735884747      0.3690000000      13.6384370154      1.6298052668      0.0000000000
1.4947214560          541.9791472535      0.3710000000      13.6342860604      1.6421759050      0.0000000000
1.5047929891          519.3888074245      0.3730000000      13.6300813282      1.6544863246      0.0000000000
1.5147972849          497.9335217673      0.3750000000      13.6258219419      1.6667352203      0.0000000000
1.5247335458          477.5485397541      0.3770000000      13.6215071629      1.6789213324      0.0000000000
1.5346010158          458.1732004647      0.3790000000      13.6171362793      1.6910434458      0.0000000000
1.5443989805          439.7506576034      0.3810000000      13.6127087118      1.7031003895      0.0000000000
1.5541267665          422.2275690009      0.3830000000      13.6082239270      1.7150910371      0.0000000000
1.5637837403          405.5538564689      0.3850000000      13.6036814862      1.7270143058      0.0000000000
1.5733693076          389.6825726590      0.3870000000      13.5990810209      1.7388691557      0.0000000000
1.5828829130          374.5695990952      0.3890000000      13.5944222023      1.7506545900      0.0000000000
1.5923240390          360.1735304843      0.3910000000      13.5897048154      1.7623696540      0.0000000000
1.6016922054          346.4554403021      0.3930000000      13.5849286780      1.7740134348      0.0000000000
1.6109869681          333.3787466453      0.3950000000      13.5800936847      1.7855850607      0.0000000000
1.6202079189          320.9090551818      0.3970000000      13.5751997495      1.7970837005      0.0000000000
1.6293546844          309.0140251084      0.3990000000      13.5702468861      1.8085085630      0.0000000000
1.6384269254          297.6632087877      0.4010000000      13.5652351325      1.8198588965      0.0000000000
1.6474243360          286.8279721816      0.4030000000      13.5601646015      1.8311339882      0.0000000000
1.6563466427          276.4813557298      0.4050000000      13.5550354351      1.8423331630      0.0000000000
1.6651936037          266.5979394125      0.4070000000      13.5498477980      1.8534557839      0.0000000000
1.6739650083          257.1538230507      0.4090000000      13.5446019419      1.8645012500      0.0000000000
1.6826606757          248.1264360739      0.4110000000      13.5392981335      1.8754689970      0.0000000000
1.6912804547          239.4945219999      0.4130000000      13.5339366842      1.8863584961      0.0000000000
1.6998242223          231.2380315432      0.4150000000      13.5285179359      1.8971692530      0.0000000000
1.7082918836          223.3380503153      0.4170000000      13.5230422738      1.9079008076      0.0000000000
1.7166833702          215.7767179042      0.4190000000      13.5175100940      1.9185527330      0.0000000000
1.7249986403          208.5371990513      0.4210000000      13.5119218537      1.9291246351      0.0000000000
1.7332376773          201.6035667600      0.4230000000      13.5062780012      1.9396161517      0.0000000000
1.7414004869          194.9608064268      0.4250000000      13.5005790416      1.9500269488      0.0000000000
1.7494871055          188.5946954317      0.4270000000      13.4948255072      1.9603567317      0.0000000000
1.7574975858          182.4918173401      0.4290000000      13.4890179276      1.9706052267      0.0000000000
1.7654320051          176.6394801060      0.4310000000      13.4831568758      1.9807721922      0.0000000000
1.7732904625          171.0256660464      0.4330000000      13.4772429245      1.9908574150      0.0000000000
1.7810730777          165.6390253171      0.4350000000      13.4712766966      2.0008607093      0.0000000000
1.7887799907          160.4687974606      0.4370000000      13.4652587843      2.0107819164      0.0000000000
1.7964113610          155.5048061635      0.4390000000      13.4591898595      2.0206209039      0.0000000000
1.8039673667          150.7374136755      0.4410000000      13.4530705547      2.0303775648      0.0000000000
1.8114482043          146.1574861541      0.4430000000      13.4469015372      2.0400518173      0.0000000000
1.8188540874          141.7563669586      0.4450000000      13.4406834890      2.0496436032      0.0000000000
1.8261852465          137.5258530813      0.4470000000      13.4344171008      2.0591528884      0.0000000000
1.8334419282          133.4581693782      0.4490000000      13.4281030774      2.0685796611      0.0000000000
