# M(M_sol)                 Lambda          n_Bc(fm^-3)         R(km)            m_B(M_sol)        m_Bquar/M_B
0.1556257906     10010172.0397703554      0.1700000000      16.5315040355      0.1559383833      0.0000000000
0.1625232880      8048655.5944580659      0.1720000000      15.9830954811      0.1629470847      0.0000000000
0.1697482949      6496293.2431745911      0.1740000000      15.5035937350      0.1702971875      0.0000000000
0.1772983604      5263216.2444171747      0.1760000000      15.0832585174      0.1779873035      0.0000000000
0.1851708244      4280206.9302460616      0.1780000000      14.7139477242      0.1860158590      0.0000000000
0.1933629632      3493749.5417087995      0.1800000000      14.3888402253      0.1943812411      0.0000000000
0.2018718739      2862297.2033821642      0.1820000000      14.1021761690      0.2030816772      0.0000000000
0.2106943951      2353495.8639166434      0.1840000000      13.8490680651      0.2121151518      0.0000000000
0.2198274506      1942081.3075223239      0.1860000000      13.6253798431      0.2214797563      0.0000000000
0.2292674895      1608241.9204917515      0.1880000000      13.4275495657      0.2311731119      0.0000000000
0.2390109938      1336412.8227817512      0.1900000000      13.2525403309      0.2411928887      0.0000000000
0.2490540369      1114312.4303324013      0.1920000000      13.0977155417      0.2515363485      0.0000000000
0.2593925904       932228.4072307245      0.1940000000      12.9608033879      0.2622006581      0.0000000000
0.2700223923       782451.8772673229      0.1960000000      12.8398285530      0.2731827499      0.0000000000
0.2809389165       658844.9862513534      0.1980000000      12.7330655167      0.2844792883      0.0000000000
0.2921373558       556504.4512316319      0.2000000000      12.6389985120      0.2960866481      0.0000000000
0.3036128292       471503.5193386409      0.2020000000      12.5563102073      0.3080011259      0.0000000000
0.3153600813       400683.9301993489      0.2040000000      12.4838268541      0.3202186260      0.0000000000
0.3273737151       341499.8732367874      0.2060000000      12.4205179860      0.3327348981      0.0000000000
0.3396480947       291891.8430101291      0.2080000000      12.3654682460      0.3455454329      0.0000000000
0.3521773430       250188.5858199772      0.2100000000      12.3178610554      0.3586454566      0.0000000000
0.3649554634       215030.4424811475      0.2120000000      12.2769758569      0.3720300546      0.0000000000
0.3779761161       185306.6959618398      0.2140000000      12.2421554200      0.3856939339      0.0000000000
0.3912329629       160108.9077208937      0.2160000000      12.2128271949      0.3996317815      0.0000000000
0.4047193994       138690.6411073832      0.2180000000      12.1884692124      0.4138379806      0.0000000000
0.4184285681       120436.9874819797      0.2200000000      12.1686034852      0.4283066198      0.0000000000
0.4323536327       104840.7398009884      0.2220000000      12.1528139128      0.4430317803      0.0000000000
0.4464875398        91481.6271225122      0.2240000000      12.1407178411      0.4580072815      0.0000000000
0.4608230862        80010.6598282568      0.2260000000      12.1319668385      0.4732267487      0.0000000000
0.4753529873        70137.3804416974      0.2280000000      12.1262475433      0.4886836824      0.0000000000
0.4900698346        61619.3144397716      0.2300000000      12.1232732718      0.5043714123      0.0000000000
0.5049661524        54253.6049041391      0.2320000000      12.1227849051      0.5202831530      0.0000000000
0.5200344271        47870.1257947671      0.2340000000      12.1245497646      0.5364120350      0.0000000000
0.5352669849        42325.6875278588      0.2360000000      12.1283469464      0.5527509701      0.0000000000
0.5506561665        37499.6751914447      0.2380000000      12.1339799004      0.5692928371      0.0000000000
0.5661942856        33290.1871916551      0.2400000000      12.1412698239      0.5860304355      0.0000000000
0.5818736216        29610.9135267663      0.2420000000      12.1500521243      0.6029564757      0.0000000000
0.5976864430        26388.5953865952      0.2440000000      12.1601754385      0.6200636032      0.0000000000
0.6136249971        23560.9170912858      0.2460000000      12.1715008124      0.6373443847      0.0000000000
0.6296815385        21074.7417984307      0.2480000000      12.1838983627      0.6547913389      0.0000000000
0.6458483930        18884.7094510757      0.2500000000      12.1972535777      0.6723970039      0.0000000000
0.6621178979        16951.9764263999      0.2520000000      12.2114593656      0.6901538725      0.0000000000
0.6784823970        15243.2067759499      0.2540000000      12.2264137339      0.7080543845      0.0000000000
0.6949343458        13729.7732207215      0.2560000000      12.2420278051      0.7260910420      0.0000000000
0.7114662315        12387.0111592682      0.2580000000      12.2582170476      0.7442563210      0.0000000000
0.7280706232        11193.6418596595      0.2600000000      12.2749043436      0.7625427262      0.0000000000
0.7447401779        10131.2736521142      0.2620000000      12.2920192800      0.7809427974      0.0000000000
0.7614675986         9183.9665669910      0.2640000000      12.3094928284      0.7994490634      0.0000000000
0.7782457440         8337.9077002750      0.2660000000      12.3272667142      0.8180541630      0.0000000000
0.7950675627         7581.0871675551      0.2680000000      12.3452859942      0.8367507730      0.0000000000
0.8119261089         6903.0473670003      0.2700000000      12.3634995924      0.8555316261      0.0000000000
0.8288145241         6294.6622213921      0.2720000000      12.3818575489      0.8743894894      0.0000000000
0.8457261281         5747.9701188312      0.2740000000      12.4003189617      0.8933172690      0.0000000000
0.8626542969         5255.9920616290      0.2760000000      12.4188393846      0.9123078724      0.0000000000
0.8795926362         4812.6268422434      0.2780000000      12.4373869892      0.9313544049      0.0000000000
0.8965348070         4412.5064323471      0.2800000000      12.4559248408      0.9504499740      0.0000000000
0.9134746440         4050.9161004613      0.2820000000      12.4744219825      0.9695878242      0.0000000000
0.9304061201         3723.7037807531      0.2840000000      12.4928492822      0.9887612981      0.0000000000
0.9473233672         3427.2090254762      0.2860000000      12.5111810909      1.0079638609      0.0000000000
0.9642206664         3158.1991656081      0.2880000000      12.5293938527      1.0271890912      0.0000000000
0.9810924247         2913.8127545044      0.2900000000      12.5474633673      1.0464306551      0.0000000000
0.9979332451         2691.5189483494      0.2920000000      12.5653714690      1.0656823887      0.0000000000
1.0147378606         2489.0714460361      0.2940000000      12.5830992110      1.0849382233      0.0000000000
1.0315011507         2304.4739714125      0.2960000000      12.6006280252      1.1041922061      0.0000000000
1.0482181703         2135.9531375063      0.2980000000      12.6179428091      1.1234385356      0.0000000000
1.0648841473         1981.9302820453      0.3000000000      12.6350312574      1.1426715595      0.0000000000
1.0814944481         1840.9966992766      0.3020000000      12.6518805430      1.1618857384      0.0000000000
1.0980446005         1711.8948632158      0.3040000000      12.6684791827      1.1810756721      0.0000000000
1.1145302831         1593.5003321651      0.3060000000      12.6848161155      1.2002360905      0.0000000000
1.1309473417         1484.8072495183      0.3080000000      12.7008823782      1.2193618736      0.0000000000
1.1472917915         1384.9148100157      0.3100000000      12.7166714409      1.2384480569      0.0000000000
1.1635597627         1293.0131531096      0.3120000000      12.7321733239      1.2574897689      0.0000000000
1.1797475787         1208.3764794515      0.3140000000      12.7473831469      1.2764823246      0.0000000000
1.1958517135         1130.3519879638      0.3160000000      12.7622966687      1.2954211780      0.0000000000
1.2118687613         1058.3508703851      0.3180000000      12.7769070246      1.3143018880      0.0000000000
1.2277954917          991.8434115726      0.3200000000      12.7912109968      1.3331201846      0.0000000000
1.2436288127          930.3513454064      0.3220000000      12.8052050934      1.3518719282      0.0000000000
1.2593657716          873.4425541142      0.3240000000      12.8188857557      1.3705531118      0.0000000000
1.2750035803          820.7269457468      0.3260000000      12.8322526391      1.3891598934      0.0000000000
1.2905395513          771.8503579478      0.3280000000      12.8453013644      1.4076885209      0.0000000000
1.3059711800          726.4930739647      0.3300000000      12.8580333118      1.4261354331      0.0000000000
1.3212960552          684.3640689773      0.3320000000      12.8704454978      1.4444971538      0.0000000000
1.3365119228          645.1997155991      0.3340000000      12.8825383401      1.4627703697      0.0000000000
1.3516166540          608.7603986416      0.3360000000      12.8943121694      1.4809518947      0.0000000000
1.3666082401          574.8279251895      0.3380000000      12.9057669513      1.4990386653      0.0000000000
1.3814848012          543.2037793052      0.3400000000      12.9169036070      1.5170277517      0.0000000000
1.3962445717          513.7069106653      0.3420000000      12.9277226856      1.5349163432      0.0000000000
1.4108859127          486.1723146731      0.3440000000      12.9382260841      1.5527017645      0.0000000000
1.4254072890          460.4491470814      0.3460000000      12.9484146711      1.5703814485      0.0000000000
1.4398072874          436.3997082570      0.3480000000      12.9582908492      1.5879529617      0.0000000000
1.4540845966          413.8979721012      0.3500000000      12.9678564805      1.6054139793      0.0000000000
1.4682380052          392.8284523073      0.3520000000      12.9771128917      1.6227622861      0.0000000000
1.4822664173          373.0855460792      0.3540000000      12.9860633015      1.6399957956      0.0000000000
1.4961688305          354.5723138312      0.3560000000      12.9947103512      1.6571125251      0.0000000000
1.5099443360          337.1997492310      0.3580000000      13.0030565379      1.6741105971      0.0000000000
1.5235921223          320.8861373408      0.3600000000      13.0111050097      1.6909882450      0.0000000000
1.5371114570          305.5562455648      0.3620000000      13.0188575740      1.7077437922      0.0000000000
1.5505017144          291.1410568843      0.3640000000      13.0263186983      1.7243756866      0.0000000000
1.5637623418          277.5769003519      0.3660000000      13.0334915172      1.7408824613      0.0000000000
1.5768928597          264.8050326773      0.3680000000      13.0403781273      1.7572627352      0.0000000000
1.5898928857          252.7714533299      0.3700000000      13.0469831582      1.7735152438      0.0000000000
1.6027620980          241.4261881613      0.3720000000      13.0533093296      1.7896387948      0.0000000000
1.6155002580          230.7231675506      0.3740000000      13.0593607630      1.8056322980      0.0000000000
1.6281071873          220.6197368045      0.3760000000      13.0651403021      1.8214947364      0.0000000000
1.6405827849          211.0765193864      0.3780000000      13.0706521598      1.8372251899      0.0000000000
1.6529270112          202.0570426459      0.3800000000      13.0759001122      1.8528228149      0.0000000000
1.6651398825          193.5274768660      0.3820000000      13.0808870725      1.8682868390      0.0000000000
1.6772214847          185.4565365086      0.3840000000      13.0856173584      1.8836165791      0.0000000000
1.6891719570          177.8151820902      0.3860000000      13.0900947196      1.8988114209      0.0000000000
1.7009914935          170.5764542418      0.3880000000      13.0943229131      1.9138708228      0.0000000000
1.7126803411          163.7153224165      0.3900000000      13.0983057790      1.9287943129      0.0000000000
1.7242387915          157.2084944116      0.3920000000      13.1020463631      1.9435814803      0.0000000000
1.7356671967          151.0343746412      0.3940000000      13.1055494422      1.9582319948      0.0000000000
1.7469659441          145.1728177172      0.3960000000      13.1088183596      1.9727455760      0.0000000000
1.7581354697          139.6050893519      0.3980000000      13.1118571162      1.9871220112      0.0000000000
1.7691762468          134.3137130538      0.4000000000      13.1146691057      2.0013611409      0.0000000000
1.7800887940          129.2824239543      0.4020000000      13.1172584886      2.0154628697      0.0000000000
1.7908736623          124.4960317106      0.4040000000      13.1196287808      2.0294271506      0.0000000000
1.8015314415          119.9403649802      0.4060000000      13.1217837755      2.0432539927      0.0000000000
1.8120627539          115.6021916908      0.4080000000      13.1237271894      2.0569434554      0.0000000000
1.8224682554          111.4691468652      0.4100000000      13.1254628508      2.0704956475      0.0000000000
1.8327486282          107.5296570674      0.4120000000      13.1269939910      2.0839107210      0.0000000000
1.8429045885          103.7729171083      0.4140000000      13.1283246856      2.0971888795      0.0000000000
1.8529368771          100.1888024798      0.4160000000      13.1294585489      2.1103303669      0.0000000000
1.8628462565           96.7678215990      0.4180000000      13.1303986591      2.1233354641      0.0000000000
1.8726335203           93.5010997974      0.4200000000      13.1311491321      2.1362045011      0.0000000000
1.8822994773           90.3802993142      0.4220000000      13.1317129642      2.1489378371      0.0000000000
1.8918449628           87.3976159931      0.4240000000      13.1320940203      2.1615358753      0.0000000000
1.9012708300           84.5457175077      0.4260000000      13.1322957759      2.1739990510      0.0000000000
1.9105779463           81.8177072680      0.4280000000      13.1323211318      2.1863278290      0.0000000000
1.9197672023           79.2071280539      0.4300000000      13.1321739209      2.1985227129      0.0000000000
1.9288395005           76.7078963008      0.4320000000      13.1318572920      2.2105842327      0.0000000000
1.9377957592           74.3142960565      0.4340000000      13.1313746227      2.2225129490      0.0000000000
1.9466369092           72.0209471321      0.4360000000      13.1307290339      2.2343094486      0.0000000000
1.9553638934           69.8227840611      0.4380000000      13.1299236979      2.2459743450      0.0000000000
1.9639776677           67.7150418745      0.4400000000      13.1289619135      2.2575082788      0.0000000000
1.9724791968           65.6932280142      0.4420000000      13.1278468035      2.2689119125      0.0000000000
1.9808694531           63.7531023387      0.4440000000      13.1265811449      2.2801859292      0.0000000000
1.9891494207           61.8906760174      0.4460000000      13.1251683208      2.2913310383      0.0000000000
1.9973200881           60.1021780732      0.4480000000      13.1236111080      2.3023479648      0.0000000000
2.0053824522           58.3840535139      0.4500000000      13.1219125725      2.3132374555      0.0000000000
2.0133375144           56.7329417955      0.4520000000      13.1200755984      2.3240002742      0.0000000000
2.0211862818           55.1456713832      0.4540000000      13.1181031026      2.3346372018      0.0000000000
2.0289297629           53.6192394819      0.4560000000      13.1159975583      2.3451490325      0.0000000000
2.0365689751           52.1508163829      0.4580000000      13.1137622922      2.3555365818      0.0000000000
2.0441049317           50.7377111144      0.4600000000      13.1113994701      2.3658006709      0.0000000000
2.0515386537           49.3773916681      0.4620000000      13.1089121645      2.3759421412      0.0000000000
2.0588711605           48.0674526405      0.4640000000      13.1063029248      2.3859618423      0.0000000000
2.0661034732           46.8056174792      0.4660000000      13.1035743772      2.3958606364      0.0000000000
2.0732366128           45.5897297539      0.4680000000      13.1007290717      2.4056393958      0.0000000000
2.0802715993           44.4177442309      0.4700000000      13.0977694391      2.4152990017      0.0000000000
2.0872094537           43.2877231390      0.4720000000      13.0946981392      2.4248403461      0.0000000000
2.0940511924           42.1978251976      0.4740000000      13.0915172680      2.4342643259      0.0000000000
2.1007978342           41.1463090345      0.4760000000      13.0882295950      2.4435718499      0.0000000000
2.1074503926           40.1315163855      0.4780000000      13.0848373702      2.4527638305      0.0000000000
2.1140098791           39.1518733436      0.4800000000      13.0813428749      2.4618411867      0.0000000000
2.1204773020           38.2058855368      0.4820000000      13.0777483846      2.4708048429      0.0000000000
2.1268536667           37.2921332076      0.4840000000      13.0740561979      2.4796557293      0.0000000000
2.1331399742           36.4092661251      0.4860000000      13.0702685229      2.4883947791      0.0000000000
2.1393372203           35.5559965319      0.4880000000      13.0663872978      2.4970229286      0.0000000000
2.1454463990           34.7311068292      0.4900000000      13.0624150160      2.5055411202      0.0000000000
2.1514684963           33.9334307172      0.4920000000      13.0583534244      2.5139502951      0.0000000000
2.1574044954           33.1618622462      0.4940000000      13.0542047514      2.5222513993      0.0000000000
2.1632553734           32.4153475362      0.4960000000      13.0499710494      2.5304453796      0.0000000000
2.1690221012           31.6928810482      0.4980000000      13.0456542113      2.5385331834      0.0000000000
2.1747056442           30.9935051619      0.5000000000      13.0412561588      2.5465157593      0.0000000000
2.1803069620           30.3163078133      0.5020000000      13.0367788452      2.5543940560      0.0000000000
2.1858270076           29.6604175910      0.5040000000      13.0322241743      2.5621690223      0.0000000000
2.1912667282           29.0250058962      0.5060000000      13.0275940726      2.5698416072      0.0000000000
2.1966270615           28.4092771168      0.5080000000      13.0228899473      2.5774127549      0.0000000000
2.2019089434           27.8124788330      0.5100000000      13.0181141255      2.5848834155      0.0000000000
2.2071132969           27.2338848851      0.5120000000      13.0132678070      2.5922545293      0.0000000000
2.2122410431           26.6728079557      0.5140000000      13.0083530686      2.5995270416      0.0000000000
2.2172930930           26.1285888646      0.5160000000      13.0033715385      2.6067018919      0.0000000000
2.2222703505           25.6005970621      0.5180000000      12.9983248067      2.6137800178      0.0000000000
2.2271737121           25.0882299784      0.5200000000      12.9932144367      2.6207623541      0.0000000000
2.2320040667           24.5909118195      0.5220000000      12.9880420075      2.6276498322      0.0000000000
2.2367622959           24.1080920428      0.5240000000      12.9828091193      2.6344433813      0.0000000000
2.2414492736           23.6392438597      0.5260000000      12.9775173750      2.6411439265      0.0000000000
2.2460658649           23.1838621833      0.5280000000      12.9721681875      2.6477523888      0.0000000000
