# M(M_sol)                 Lambda          n_Bc(fm^-3)         R(km)            m_B(M_sol)        m_Bquar/M_B
0.1519880606     46688107.6439489722      0.0910000000      23.7704796742      0.1522352171      0.0000000000
0.1581303583     38562022.3770972118      0.0930000000      22.7916832291      0.1584641715      0.0000000000
0.1643852529     32081077.6702133603      0.0950000000      21.9523470126      0.1648126944      0.0000000000
0.1707462339     26857759.4394749105      0.0970000000      21.2261622184      0.1712744174      0.0000000000
0.1772074763     22611168.8262439854      0.0990000000      20.5929248945      0.1778436544      0.0000000000
0.1837637397     19132779.0004225262      0.1010000000      20.0368766036      0.1845152998      0.0000000000
0.1904102950     16264879.7141907904      0.1030000000      19.5455561508      0.1912847567      0.0000000000
0.1971428642     13886411.0084299520      0.1050000000      19.1089876446      0.1981478755      0.0000000000
0.2039575707     11903307.6933351383      0.1070000000      18.7190963998      0.2051009063      0.0000000000
0.2108508997     10241737.9150541145      0.1090000000      18.3692812004      0.2121404587      0.0000000000
0.2178196641      8843239.7144868840      0.1110000000      18.0540968998      0.2192634685      0.0000000000
0.2248490456      7662996.2025596574      0.1130000000      17.7694714884      0.2264549588      0.0000000000
0.2317966613      6680749.1456409534      0.1150000000      17.5162876036      0.2335692172      0.0000000000
0.2387162199      5851142.8867942914      0.1170000000      17.2880644310      0.2406610766      0.0000000000
0.2456333659      5143916.2132622628      0.1190000000      17.0806354095      0.2477567677      0.0000000000
0.2525583223      4537250.0725195017      0.1210000000      16.8910858628      0.2548667763      0.0000000000
0.2594970241      4014196.6201891019      0.1230000000      16.7171206790      0.2619972180      0.0000000000
0.2664535333      3561241.7990858299      0.1250000000      16.5568615181      0.2691523044      0.0000000000
0.2734309325      3167444.7392078876      0.1270000000      16.4087392338      0.2763352546      0.0000000000
0.2804317310      2823855.0568211027      0.1290000000      16.2714259305      0.2835487092      0.0000000000
0.2874580780      2523086.1219006279      0.1310000000      16.1437860120      0.2907949477      0.0000000000
0.2945118857      2259002.3441017517      0.1330000000      16.0248416087      0.2980760142      0.0000000000
0.3015948971      2026474.2327269420      0.1350000000      15.9137442733      0.3053937862      0.0000000000
0.3087087373      1821190.9560621427      0.1370000000      15.8097541980      0.3127500269      0.0000000000
0.3158549371      1639512.5246415909      0.1390000000      15.7122227653      0.3201464093      0.0000000000
0.3230349563      1478351.1378636633      0.1410000000      15.6205788457      0.3275845398      0.0000000000
0.3302501962      1335076.9156861638      0.1430000000      15.5343175240      0.3350659707      0.0000000000
0.3375020053      1207441.4767656282      0.1450000000      15.4529905847      0.3425922066      0.0000000000
0.3447916879      1093515.5351371702      0.1470000000      15.3761986406      0.3501647120      0.0000000000
0.3521205059       991638.5604891024      0.1490000000      15.3035851878      0.3577849143      0.0000000000
0.3594896816       900376.0703063565      0.1510000000      15.2348302353      0.3654542057      0.0000000000
0.3669003991       818486.0751819132      0.1530000000      15.1696464691      0.3731739446      0.0000000000
0.3743538039       744889.3938171369      0.1550000000      15.1077746984      0.3809454554      0.0000000000
0.3818510014       678646.4170578606      0.1570000000      15.0489806757      0.3887700270      0.0000000000
0.3893930693       618936.5635271785      0.1590000000      14.9930523893      0.3966489248      0.0000000000
0.3969810184       565041.7651668479      0.1610000000      14.9397970036      0.4045833502      0.0000000000
0.4046158434       516332.0206430267      0.1630000000      14.8890392545      0.4125744940      0.0000000000
0.4122984890       472253.4235740728      0.1650000000      14.8406191818      0.4206234997      0.0000000000
0.4200298560       432317.9439143646      0.1670000000      14.7943905568      0.4287314709      0.0000000000
0.4278107998       396094.7625244975      0.1690000000      14.7502194030      0.4368994686      0.0000000000
0.4356421308       363202.7947050341      0.1710000000      14.7079829381      0.4451285124      0.0000000000
0.4435246120       333304.2484230156      0.1730000000      14.6675680431      0.4534195769      0.0000000000
0.4514589561       306099.3794389755      0.1750000000      14.6288707776      0.4617735893      0.0000000000
0.4594458266       281321.5054200914      0.1770000000      14.5917949619      0.4701914296      0.0000000000
0.4674858359       258733.1859498508      0.1790000000      14.5562519961      0.4786739292      0.0000000000
0.4755795387       238122.5143985301      0.1810000000      14.5221595013      0.4872218633      0.0000000000
0.4837274496       219300.1551119520      0.1830000000      14.4894412661      0.4958359690      0.0000000000
0.4919300151       202096.7561699597      0.1850000000      14.4580265363      0.5045169159      0.0000000000
0.5001876311       186360.4633387809      0.1870000000      14.4278492343      0.5132653247      0.0000000000
0.5085006361       171955.1273335532      0.1890000000      14.3988480697      0.5220817587      0.0000000000
0.5168693115       158758.3429515746      0.1910000000      14.3709654881      0.5309667249      0.0000000000
0.5252938809       146660.0713990253      0.1930000000      14.3441480570      0.5399206723      0.0000000000
0.5337745087       135561.1473979244      0.1950000000      14.3183453383      0.5489439906      0.0000000000
0.5423113007       125372.1745242121      0.1970000000      14.2935103675      0.5580370103      0.0000000000
0.5509043026       116012.4641045256      0.1990000000      14.2695987770      0.5672000009      0.0000000000
0.5595535004       107409.0949635178      0.2010000000      14.2465690592      0.5764331706      0.0000000000
0.5682588201        99496.0898678475      0.2030000000      14.2243818893      0.5857366666      0.0000000000
0.5770201264        92213.7212615326      0.2050000000      14.2030003237      0.5951105724      0.0000000000
0.5858372255        85507.8296460428      0.2070000000      14.1823893689      0.6045549109      0.0000000000
0.5947098621        79329.3104513317      0.2090000000      14.1625160212      0.6140696409      0.0000000000
0.6036377214        73633.5490979434      0.2110000000      14.1433489385      0.6236546586      0.0000000000
0.6126204287        68380.0071445883      0.2130000000      14.1248583721      0.6333097973      0.0000000000
0.6216575503        63531.8047475499      0.2150000000      14.1070161685      0.6430348272      0.0000000000
0.6307485924        59055.3847679368      0.2170000000      14.0897954411      0.6528294549      0.0000000000
0.6398930048        54920.1474669403      0.2190000000      14.0731705935      0.6626933258      0.0000000000
0.6490901786        51098.2207193792      0.2210000000      14.0571173259      0.6726260223      0.0000000000
0.6583394487        47564.1585005677      0.2230000000      14.0416123912      0.6826270655      0.0000000000
0.6676400934        44294.7336873470      0.2250000000      14.0266335447      0.6926959144      0.0000000000
0.6769913366        41268.7216661638      0.2270000000      14.0121595392      0.7028319681      0.0000000000
0.6863923478        38466.7164559640      0.2290000000      13.9981699966      0.7130345654      0.0000000000
0.6958422437        35870.9678214485      0.2310000000      13.9846454305      0.7233029858      0.0000000000
0.7053400899        33465.2254131094      0.2330000000      13.9715671282      0.7336364513      0.0000000000
0.7148849010        31234.6048343732      0.2350000000      13.9589170932      0.7440341259      0.0000000000
0.7244756433        29165.4620102789      0.2370000000      13.9466780912      0.7544951183      0.0000000000
0.7341112345        27245.2881143549      0.2390000000      13.9348334558      0.7650184809      0.0000000000
0.7437905469        25462.6057635740      0.2410000000      13.9233672242      0.7756032131      0.0000000000
0.7535124078        23806.8778362745      0.2430000000      13.9122639441      0.7862482614      0.0000000000
0.7632756018        22268.4256721808      0.2450000000      13.9015087547      0.7969525213      0.0000000000
0.7730788722        20838.3563098971      0.2470000000      13.8910873629      0.8077148387      0.0000000000
0.7829209220        19508.4938612756      0.2490000000      13.8809859117      0.8185340103      0.0000000000
0.7928004173        18271.3163870901      0.2510000000      13.8711910370      0.8294087871      0.0000000000
0.8027159865        17119.9030013742      0.2530000000      13.8616897939      0.8403378736      0.0000000000
0.8126662257        16047.8811715444      0.2550000000      13.8524697744      0.8513199323      0.0000000000
0.8226496963        15049.3810181557      0.2570000000      13.8435188410      0.8623535818      0.0000000000
0.8326649305        14118.9945449919      0.2590000000      13.8348253518      0.8734374021      0.0000000000
0.8427104312        13251.7357717418      0.2610000000      13.8263780053      0.8845699340      0.0000000000
0.8527846747        12443.0053113863      0.2630000000      13.8181658797      0.8957496818      0.0000000000
0.8628861119        11688.5610136493      0.2650000000      13.8101783574      0.9069751146      0.0000000000
0.8730131708        10984.4863137393      0.2670000000      13.8024052051      0.9182446687      0.0000000000
0.8831642587        10327.1653278259      0.2690000000      13.7948365170      0.9295567493      0.0000000000
0.8933377633         9713.2565767543      0.2710000000      13.7874625924      0.9409097319      0.0000000000
0.9035320549         9139.6744177219      0.2730000000      13.7802741948      0.9523019648      0.0000000000
0.9137454888         8603.5645188713      0.2750000000      13.7732622756      0.9637317705      0.0000000000
0.9239764068         8102.2878296206      0.2770000000      13.7664180990      0.9751974481      0.0000000000
0.9342231389         7633.4033672056      0.2790000000      13.7597332037      0.9866972745      0.0000000000
0.9444840054         7194.6508886123      0.2810000000      13.7531993141      0.9982295068      0.0000000000
0.9547573192         6783.9390036776      0.2830000000      13.7468085651      1.0097923844      0.0000000000
0.9650413867         6399.3302394668      0.2850000000      13.7405532458      1.0213841302      0.0000000000
0.9753345101         6039.0298990746      0.2870000000      13.7344258704      1.0330029525      0.0000000000
0.9856349897         5701.3741898757      0.2890000000      13.7284192720      1.0446470481      0.0000000000
0.9959411242         5384.8215180580      0.2910000000      13.7225264319      1.0563146018      0.0000000000
1.0062512140         5087.9411025861      0.2930000000      13.7167405864      1.0680037908      0.0000000000
1.0165635616         4809.4062435288      0.2950000000      13.7110552178      1.0797127843      0.0000000000
1.0268764739         4547.9858002793      0.2970000000      13.7054639788      1.0914397465      0.0000000000
1.0371882639         4302.5364069096      0.2990000000      13.6999607770      1.1031828383      0.0000000000
1.0474972513         4071.9962211991      0.3010000000      13.6945396553      1.1149402179      0.0000000000
1.0578017654         3855.3793587521      0.3030000000      13.6891949498      1.1267100440      0.0000000000
1.0681001454         3651.7690186136      0.3050000000      13.6839210898      1.1384904764      0.0000000000
1.0783907418         3460.3133976944      0.3070000000      13.6787127815      1.1502796771      0.0000000000
1.0886719183         3280.2202609077      0.3090000000      13.6735648528      1.1620758134      0.0000000000
1.0989420533         3110.7526071081      0.3110000000      13.6684723717      1.1738770583      0.0000000000
1.1091995403         2951.2246189057      0.3130000000      13.6634304874      1.1856815919      0.0000000000
1.1194427894         2800.9981605461      0.3150000000      13.6584346278      1.1974876033      0.0000000000
1.1296702289         2659.4788888096      0.3170000000      13.6534803401      1.2092932918      0.0000000000
1.1398803057         2526.1131987816      0.3190000000      13.6485633072      1.2210968679      0.0000000000
1.1500714869         2400.3852009176      0.3210000000      13.6436794256      1.2328965553      0.0000000000
1.1602422601         2281.8144504441      0.3230000000      13.6388247237      1.2446905909      0.0000000000
1.1703911351         2169.9527539279      0.3250000000      13.6339953971      1.2564772274      0.0000000000
1.1805166443         2064.3820932935      0.3270000000      13.6291877441      1.2682547336      0.0000000000
1.1906173435         1964.7125732619      0.3290000000      13.6243982728      1.2800213952      0.0000000000
1.2006918128         1870.5803764400      0.3310000000      13.6196235896      1.2917755168      0.0000000000
1.2107386574         1781.6458262959      0.3330000000      13.6148604699      1.3035154221      0.0000000000
1.2207565080         1697.5916043633      0.3350000000      13.6101057653      1.3152394550      0.0000000000
1.2307440217         1618.1216433881      0.3370000000      13.6053565454      1.3269459807      0.0000000000
1.2406998820         1542.9589729076      0.3390000000      13.6006099182      1.3386333861      0.0000000000
1.2506228003         1471.8448551955      0.3410000000      13.5958631946      1.3503000812      0.0000000000
1.2605115154         1404.5373684032      0.3430000000      13.5911137554      1.3619444994      0.0000000000
1.2703647942         1340.8102163769      0.3450000000      13.5863591225      1.3735650981      0.0000000000
1.2801814326         1280.4516696580      0.3470000000      13.5815969272      1.3851603599      0.0000000000
1.2899602548         1223.2636387559      0.3490000000      13.5768249040      1.3967287924      0.0000000000
1.2997001146         1169.0606320754      0.3510000000      13.5720409116      1.4082689296      0.0000000000
1.3093998951         1117.6689101015      0.3530000000      13.5672429036      1.4197793317      0.0000000000
1.3190585088         1068.9258204957      0.3550000000      13.5624289383      1.4312585861      0.0000000000
1.3286748982         1022.6788250240      0.3570000000      13.5575971854      1.4427053074      0.0000000000
1.3382480354          978.7850922100      0.3590000000      13.5527458969      1.4541181381      0.0000000000
1.3477769227          937.1105044961      0.3610000000      13.5478734007      1.4654957488      0.0000000000
1.3572605922          897.5294560248      0.3630000000      13.5429781654      1.4768368384      0.0000000000
1.3666981081          859.9239792160      0.3650000000      13.5380587202      1.4881401371      0.0000000000
1.3760885585          824.1834223626      0.3670000000      13.5331136547      1.4994043964      0.0000000000
1.3854310684          790.2038368668      0.3690000000      13.5281416979      1.5106284059      0.0000000000
1.3947247880          757.8876843024      0.3710000000      13.5231416026      1.5218109781      0.0000000000
1.4039688994          727.1433170373      0.3730000000      13.5181122430      1.5329509583      0.0000000000
1.4131626140          697.8845844473      0.3750000000      13.5130525414      1.5440472202      0.0000000000
1.4223051723          670.0305045594      0.3770000000      13.5079615247      1.5550986674      0.0000000000
1.4313958440          643.5049802127      0.3790000000      13.5028382318      1.5661042323      0.0000000000
1.4404339278          618.2363699857      0.3810000000      13.4976818303      1.5770628774      0.0000000000
1.4494187511          594.1573200046      0.3830000000      13.4924915134      1.5879735945      0.0000000000
1.4583496700          571.2044488038      0.3850000000      13.4872665581      1.5988354049      0.0000000000
1.4672260684          549.3180661336      0.3870000000      13.4820063082      1.6096473591      0.0000000000
1.4760473582          528.4419614824      0.3890000000      13.4767101379      1.6204085370      0.0000000000
1.4848129793          508.5231637294      0.3910000000      13.4713775231      1.6311180477      0.0000000000
1.4935223981          489.5118369383      0.3930000000      13.4660079343      1.6417750288      0.0000000000
1.5021751084          471.3608967469      0.3950000000      13.4606009561      1.6523786473      0.0000000000
1.5107706302          454.0260484456      0.3970000000      13.4551561649      1.6629280982      0.0000000000
1.5193085099          437.4654725863      0.3990000000      13.4496732376      1.6734226050      0.0000000000
1.5277883193          421.6397161921      0.4010000000      13.4441518750      1.6838614196      0.0000000000
1.5362096558          406.5115452722      0.4030000000      13.4385918151      1.6942438214      0.0000000000
1.5445721417          392.0458296198      0.4050000000      13.4329928663      1.7045691175      0.0000000000
1.5528754236          378.2093895968      0.4070000000      13.4273548402      1.7148366425      0.0000000000
1.5611191723          364.9708672119      0.4090000000      13.4216776180      1.7250457577      0.0000000000
1.5693030822          352.3006764525      0.4110000000      13.4159611135      1.7351958511      0.0000000000
1.5774268708          340.1708138251      0.4130000000      13.4102052681      1.7452863374      0.0000000000
1.5854902786          328.5548335543      0.4150000000      13.4044100553      1.7553166569      0.0000000000
1.5934930679          317.4277284432      0.4170000000      13.3985755018      1.7652862757      0.0000000000
1.6014350234          306.7658141281      0.4190000000      13.3927016511      1.7751946854      0.0000000000
1.6093159506          296.5467166403      0.4210000000      13.3867885882      1.7850414025      0.0000000000
1.6171356764          286.7492486403      0.4230000000      13.3808363958      1.7948259678      0.0000000000
1.6248940476          277.3533409115      0.4250000000      13.3748452160      1.8045479464      0.0000000000
1.6325909316          268.3399882332      0.4270000000      13.3688152329      1.8142069277      0.0000000000
1.6402262147          259.6912077468      0.4290000000      13.3627466114      1.8238025237      0.0000000000
1.6477998025          251.3899464021      0.4310000000      13.3566395430      1.8333343698      0.0000000000
1.6553116193          243.4200458902      0.4330000000      13.3504942870      1.8428021242      0.0000000000
1.6627616073          235.7661769715      0.4350000000      13.3443110927      1.8522054672      0.0000000000
1.6701497265          228.4138194801      0.4370000000      13.3380902236      1.8615441006      0.0000000000
1.6774759538          221.3491803293      0.4390000000      13.3318319763      1.8708177477      0.0000000000
1.6847402831          214.5591927226      0.4410000000      13.3255366659      1.8800261531      0.0000000000
1.6919427245          208.0314430532      0.4430000000      13.3192046079      1.8891690814      0.0000000000
1.6990833039          201.7541431208      0.4450000000      13.3128361654      1.8982463177      0.0000000000
1.7061620625          195.7161082851      0.4470000000      13.3064316808      1.9072576667      0.0000000000
1.7131790566          189.9067168355      0.4490000000      13.2999915394      1.9162029524      0.0000000000
