# M(M_sol)                 Lambda          n_Bc(fm^-3)         R(km)            m_B(M_sol)        m_Bquar/M_B
0.1500252460     40387729.2819833234      0.1110000000      22.8284667524      0.1502155032      0.0000000000
0.1535363407     35712899.1693561971      0.1130000000      22.2127612131      0.1537733585      0.0000000000
0.1570777962     31675821.9334498011      0.1150000000      21.6527104521      0.1573638414      0.0000000000
0.1606433853     28178533.1989847310      0.1170000000      21.1420566333      0.1609806775      0.0000000000
0.1642590574     25114834.8662325554      0.1190000000      20.6713958385      0.1646502445      0.0000000000
0.1679351584     22416287.5686570853      0.1210000000      20.2352195906      0.1683831281      0.0000000000
0.1716793494     20029938.6794360615      0.1230000000      19.8293134654      0.1721872094      0.0000000000
0.1754982329     17913113.4478247650      0.1250000000      19.4502738472      0.1760693121      0.0000000000
0.1793978807     16030662.9071123023      0.1270000000      19.0952822981      0.1800357369      0.0000000000
0.1833840556     14353222.5121370014      0.1290000000      18.7619686430      0.1840924866      0.0000000000
0.1874623220     12855972.9735426996      0.1310000000      18.4483172880      0.1882453785      0.0000000000
0.1916381034     11517756.3704245463      0.1330000000      18.1526012554      0.1925001031      0.0000000000
0.1959167126     10320373.7751063202      0.1350000000      17.8733279635      0.1968622552      0.0000000000
0.2003033687      9248092.7341830116      0.1370000000      17.6092013905      0.2013373516      0.0000000000
0.2048032034      8287208.3488855632      0.1390000000      17.3590883064      0.2059308378      0.0000000000
0.2094212613      7425729.7693134658      0.1410000000      17.1219931771      0.2106480894      0.0000000000
0.2141624998      6653112.3045321479      0.1430000000      16.8970364198      0.2154944117      0.0000000000
0.2190317834      5960047.2701148679      0.1450000000      16.6834379763      0.2204750351      0.0000000000
0.2240338759      5338283.6915307185      0.1470000000      16.4805012495      0.2255951076      0.0000000000
0.2291734349      4780486.8911430798      0.1490000000      16.2876024473      0.2308596888      0.0000000000
0.2344550080      4280116.0041248323      0.1510000000      16.1041791682      0.2362737479      0.0000000000
0.2398829985      3831327.7305376460      0.1530000000      15.9297230068      0.2418421275      0.0000000000
0.2454616947      3428885.7342380104      0.1550000000      15.7637707795      0.2475695752      0.0000000000
0.2511952335      3068095.2610585508      0.1570000000      15.6058994749      0.2534607059      0.0000000000
0.2570875997      2744737.8020704598      0.1590000000      15.4557203983      0.2595200014      0.0000000000
0.2631426139      2455019.5157914488      0.1610000000      15.3128747519      0.2657517987      0.0000000000
0.2693639258      2195526.2214912395      0.1630000000      15.1770298991      0.2721602829      0.0000000000
0.2757550010      1963183.6887362667      0.1650000000      15.0478759751      0.2787494732      0.0000000000
0.2823191178      1755222.2185123956      0.1670000000      14.9251230755      0.2855232205      0.0000000000
0.2890593555      1569146.4814334421      0.1690000000      14.8084988799      0.2924851945      0.0000000000
0.2959785827      1402708.0209000439      0.1710000000      14.6977464259      0.2996388721      0.0000000000
0.3030794675      1253881.7024776468      0.1730000000      14.5926226410      0.3069875468      0.0000000000
0.3103644469      1120843.4296152419      0.1750000000      14.4928965301      0.3145342976      0.0000000000
0.3178357363      1001951.5151979212      0.1770000000      14.3983483551      0.3222819977      0.0000000000
0.3254953197       895728.4378995943      0.1790000000      14.3087680521      0.3302333040      0.0000000000
0.3333449445       800845.5730319099      0.1810000000      14.2239544325      0.3383906511      0.0000000000
0.3413861197       716108.7922059648      0.1830000000      14.1437147566      0.3467562485      0.0000000000
0.3496201100       640445.3694004134      0.1850000000      14.0678634421      0.3553320737      0.0000000000
0.3580479337       572892.5700764081      0.1870000000      13.9962221528      0.3641198690      0.0000000000
0.3666703623       512586.6701388851      0.1890000000      13.9286189334      0.3731211401      0.0000000000
0.3754879160       458753.3500835258      0.1910000000      13.8648877111      0.3823371501      0.0000000000
0.3845008647       410699.0739966479      0.1930000000      13.8048683184      0.3917689193      0.0000000000
0.3937092278       367802.8477192575      0.1950000000      13.7484058521      0.4014172234      0.0000000000
0.4031127752       329509.0821028689      0.1970000000      13.6953506823      0.4112825937      0.0000000000
0.4127110261       295320.9822316585      0.1990000000      13.6455579614      0.4213653138      0.0000000000
0.4225032536       264794.6154641768      0.2010000000      13.5988877119      0.4316654229      0.0000000000
0.4324884844       237533.4589580309      0.2030000000      13.5552044399      0.4421827138      0.0000000000
0.4426655038       213183.5266895168      0.2050000000      13.5143770531      0.4529167364      0.0000000000
0.4530328580       191428.9588360113      0.2070000000      13.4762788111      0.4638667984      0.0000000000
0.4635888578       171988.0517488866      0.2090000000      13.4407871290      0.4750319669      0.0000000000
0.4743315843       154609.5994644025      0.2110000000      13.4077833475      0.4864110731      0.0000000000
0.4852588922       139069.7500752422      0.2130000000      13.3771529555      0.4980027134      0.0000000000
0.4963684172       125169.0255336368      0.2150000000      13.3487851898      0.5098052549      0.0000000000
0.5076575795       112729.7228750490      0.2170000000      13.3225729599      0.5218168377      0.0000000000
0.5191235931       101593.5925231478      0.2190000000      13.2984130647      0.5340353823      0.0000000000
0.5307634690        91619.7083054595      0.2210000000      13.2762056496      0.5464585909      0.0000000000
0.5425740253        82682.5949372773      0.2230000000      13.2558545232      0.5590839560      0.0000000000
0.5545518926        74670.5416123813      0.2250000000      13.2372668479      0.5719087641      0.0000000000
0.5666935226        67484.0944990708      0.2270000000      13.2203531230      0.5849301029      0.0000000000
0.5789951962        61034.7112715031      0.2290000000      13.2050271372      0.5981448675      0.0000000000
0.5914530308        55243.5589945553      0.2310000000      13.1912057991      0.6115497662      0.0000000000
0.6040629895        50040.4523751000      0.2330000000      13.1788091570      0.6251413287      0.0000000000
0.6168208892        45362.8865845018      0.2350000000      13.1677602686      0.6389159120      0.0000000000
0.6297224103        41155.1913897639      0.2370000000      13.1579850980      0.6528697096      0.0000000000
0.6427631044        37367.7750287755      0.2390000000      13.1494125310      0.6669987574      0.0000000000
0.6559384038        33956.4560423041      0.2410000000      13.1419741406      0.6812989421      0.0000000000
0.6692436308        30881.8557283026      0.2430000000      13.1356043226      0.6957660093      0.0000000000
0.6826740068        28108.8684662216      0.2450000000      13.1302400223      0.7103955719      0.0000000000
0.6962246607        25606.1884699400      0.2470000000      13.1258207339      0.7251831171      0.0000000000
0.7098906393        23345.8902991946      0.2490000000      13.1222884668      0.7401240162      0.0000000000
0.7236669151        21303.0547285859      0.2510000000      13.1195876294      0.7552135315      0.0000000000
0.7375483967        19455.4319185602      0.2530000000      13.1176649257      0.7704468262      0.0000000000
0.7515299356        17783.1551285276      0.2550000000      13.1164693471      0.7858189704      0.0000000000
0.7656063380        16268.4715639559      0.2570000000      13.1159520716      0.8013249525      0.0000000000
0.7797723703        14895.5141809809      0.2590000000      13.1160663674      0.8169596839      0.0000000000
0.7940227704        13650.0913986950      0.2610000000      13.1167675992      0.8327180109      0.0000000000
0.8083522554        12519.5064314759      0.2630000000      13.1180130587      0.8485947214      0.0000000000
0.8227555265        11492.3923424760      0.2650000000      13.1197619395      0.8645845498      0.0000000000
0.8372272833        10558.5694696610      0.2670000000      13.1219753624      0.8806821914      0.0000000000
0.8517622264         9708.9149456148      0.2690000000      13.1246161908      0.8968823051      0.0000000000
0.8663550666         8935.2494200201      0.2710000000      13.1276489855      0.9131795227      0.0000000000
0.8810005329         8230.2338564725      0.2730000000      13.1310399687      0.9295684570      0.0000000000
0.8956933786         7587.2815220166      0.2750000000      13.1347570407      0.9460437084      0.0000000000
0.9104283882         7000.4754438621      0.2770000000      13.1387695114      0.9625998721      0.0000000000
0.9252003844         6464.4991745483      0.2790000000      13.1430483291      0.9792315456      0.0000000000
0.9400042339         5974.5708224279      0.2810000000      13.1475657668      0.9959333351      0.0000000000
0.9548348533         5526.3880540155      0.2830000000      13.1522955324      1.0126998619      0.0000000000
0.9696872150         5116.0774135880      0.2850000000      13.1572126102      1.0295257690      0.0000000000
0.9845563523         4740.1490130304      0.2870000000      13.1622933203      1.0464057273      0.0000000000
0.9994373648         4395.4565344987      0.2890000000      13.1675151630      1.0633344412      0.0000000000
1.0143254224         4079.1619189071      0.2910000000      13.1728568260      1.0803066539      0.0000000000
1.0292157707         3788.7036325090      0.2930000000      13.1782981476      1.0973171540      0.0000000000
1.0441037344         3521.7676716204      0.2950000000      13.1838200504      1.1143607788      0.0000000000
1.0589847214         3276.2627719979      0.2970000000      13.1894045011      1.1314324207      0.0000000000
1.0738542264         3050.2972601593      0.2990000000      13.1950344129      1.1485270311      0.0000000000
1.0887078342         2842.1594497055      0.3010000000      13.2006937526      1.1656396245      0.0000000000
1.1035412223         2650.2990084209      0.3030000000      13.2063673542      1.1827652835      0.0000000000
1.1183501683         2473.3111243365      0.3050000000      13.2120409392      1.1998991666      0.0000000000
1.1331305352         2309.9216918982      0.3070000000      13.2177010523      1.2170364925      0.0000000000
1.1478782986         2158.9747406408      0.3090000000      13.2233350855      1.2341725729      0.0000000000
1.1625895320         2019.4205228697      0.3110000000      13.2289312019      1.2513027958      0.0000000000
1.1772604127         1890.3051432965      0.3130000000      13.2344782808      1.2684226335      0.0000000000
1.1918872233         1770.7613938271      0.3150000000      13.2399659378      1.2855276450      0.0000000000
1.2064663522         1660.0002104135      0.3170000000      13.2453844401      1.3026134785      0.0000000000
1.2209942952         1557.3030010159      0.3190000000      13.2507246967      1.3196758733      0.0000000000
1.2354676525         1462.0153882825      0.3210000000      13.2559782618      1.3367106581      0.0000000000
1.2498831422         1373.5405592480      0.3230000000      13.2611372850      1.3537137675      0.0000000000
1.2642375815         1291.3341593796      0.3250000000      13.2661944397      1.3706812215      0.0000000000
1.2785278993         1214.8992326639      0.3270000000      13.2711429734      1.3876091409      0.0000000000
1.2927511329         1143.7818309283      0.3290000000      13.2759766057      1.4044937455      0.0000000000
1.3069044282         1077.5669445142      0.3310000000      13.2806895881      1.4213313545      0.0000000000
1.3209850384         1015.8750776287      0.3330000000      13.2852765906      1.4381183872      0.0000000000
1.3349903242          958.3588317056      0.3350000000      13.2897327810      1.4548513634      0.0000000000
1.3489177525          904.7000455384      0.3370000000      13.2940536887      1.4715269041      0.0000000000
1.3627648958          854.6071227151      0.3390000000      13.2982352802      1.4881417315      0.0000000000
1.3765294313          807.8126643368      0.3410000000      13.3022738957      1.5046926690      0.0000000000
1.3902091391          764.0712996082      0.3430000000      13.3061662325      1.5211766411      0.0000000000
1.4038019018          723.1576932120      0.3450000000      13.3099092984      1.5375906728      0.0000000000
1.4173057026          684.8648627494      0.3470000000      13.3135004879      1.5539318900      0.0000000000
1.4307186240          649.0024736169      0.3490000000      13.3169374644      1.5701975182      0.0000000000
1.4440388463          615.3954409778      0.3510000000      13.3202181890      1.5863848821      0.0000000000
1.4572646458          583.8825748221      0.3530000000      13.3233408986      1.6024914052      0.0000000000
1.4703943936          554.3154247720      0.3550000000      13.3263040979      1.6185146083      0.0000000000
1.4834265530          526.5571594309      0.3570000000      13.3291065341      1.6344521090      0.0000000000
1.4963596788          500.4815884550      0.3590000000      13.3317471747      1.6503016207      0.0000000000
1.5091924142          475.9722735916      0.3610000000      13.3342252325      1.6660609510      0.0000000000
1.5219234901          452.9216905129      0.3630000000      13.3365401178      1.6817280011      0.0000000000
1.5345517222          431.2305140519      0.3650000000      13.3386914327      1.6973007639      0.0000000000
1.5470760096          410.8069142569      0.3670000000      13.3406789466      1.7127773231      0.0000000000
1.5594953328          391.5659434807      0.3690000000      13.3425026509      1.7281558519      0.0000000000
1.5718087511          373.4289882829      0.3710000000      13.3441626715      1.7434346111      0.0000000000
1.5840154012          356.3232673937      0.3730000000      13.3456592692      1.7586119475      0.0000000000
1.5961144950          340.1812948301      0.3750000000      13.3469928735      1.7736862933      0.0000000000
1.6081053173          324.9405473223      0.3770000000      13.3481640329      1.7886561632      0.0000000000
1.6199872272          310.5430217197      0.3790000000      13.3491734436      1.8035201578      0.0000000000
1.6317596433          296.9348394330      0.3810000000      13.3500219017      1.8182769458      0.0000000000
1.6434220604          284.0660157074      0.3830000000      13.3507103191      1.8329252855      0.0000000000
1.6549740353          271.8900833576      0.3850000000      13.3512397114      1.8474640081      0.0000000000
1.6664151873          260.3638225753      0.3870000000      13.3516111802      1.8618920196      0.0000000000
1.6777451969          249.4470710641      0.3890000000      13.3518259333      1.8762082989      0.0000000000
1.6889638030          239.1024074127      0.3910000000      13.3518852217      1.8904118963      0.0000000000
1.7000708019          229.2950168346      0.3930000000      13.3517904269      1.9045019317      0.0000000000
1.7110660444          219.9924386641      0.3950000000      13.3515429616      1.9184775930      0.0000000000
1.7219494343          211.1644301970      0.3970000000      13.3511443071      1.9323381337      0.0000000000
1.7327209267          202.7827803266      0.3990000000      13.3505960173      1.9460828723      0.0000000000
1.7433805257          194.8211592631      0.4010000000      13.3498996982      1.9597111895      0.0000000000
1.7539282828          187.2549822938      0.4030000000      13.3490569876      1.9732225270      0.0000000000
1.7643642951          180.0612960587      0.4050000000      13.3480695833      1.9866163856      0.0000000000
1.7746887034          173.2186420417      0.4070000000      13.3469392214      1.9998923237      0.0000000000
1.7849016905          166.7069477682      0.4090000000      13.3456676604      2.0130499553      0.0000000000
1.7950034797          160.5074497310      0.4110000000      13.3442567266      2.0260889487      0.0000000000
1.8049943325          154.6025784844      0.4130000000      13.3427082380      2.0390090244      0.0000000000
1.8148745479          148.9758850108      0.4150000000      13.3410240518      2.0518099539      0.0000000000
1.8246444598          143.6119594860      0.4170000000      13.3392060479      2.0644915576      0.0000000000
1.8343044361          138.4963482449      0.4190000000      13.3372561165      2.0770537038      0.0000000000
1.8438548772          133.6155070607      0.4210000000      13.3351761955      2.0894963066      0.0000000000
1.8532962138          128.9567327008      0.4230000000      13.3329681876      2.1018193245      0.0000000000
1.8626289064          124.5080903001      0.4250000000      13.3306340382      2.1140227592      0.0000000000
1.8718534432          120.2583781668      0.4270000000      13.3281756953      2.1261066536      0.0000000000
1.8809703388          116.1970756710      0.4290000000      13.3255951181      2.1380710905      0.0000000000
1.8899801333          112.3142893899      0.4310000000      13.3228942624      2.1499161913      0.0000000000
1.8988833902          108.6007216918      0.4330000000      13.3200750711      2.1616421144      0.0000000000
1.9076806962          105.0476185107      0.4350000000      13.3171395191      2.1732490541      0.0000000000
1.9163726590          101.6467477500      0.4370000000      13.3140895648      2.1847372391      0.0000000000
1.9249599065           98.3903576461      0.4390000000      13.3109271508      2.1961069303      0.0000000000
1.9334430858           95.2711455226      0.4410000000      13.3076542323      2.2073584213      0.0000000000
1.9418228617           92.2822268063      0.4430000000      13.3042727435      2.2184920356      0.0000000000
1.9500999160           89.4171146115      0.4450000000      13.3007846317      2.2295081258      0.0000000000
1.9582749462           86.6696924920      0.4470000000      13.2971918076      2.2404070728      0.0000000000
1.9663486646           84.0341849044      0.4490000000      13.2934961965      2.2511892840      0.0000000000
1.9743217972           81.5051425534      0.4510000000      13.2896997031      2.2618551925      0.0000000000
1.9821950829           79.0774237197      0.4530000000      13.2858042119      2.2724052557      0.0000000000
1.9899692723           76.7461647156      0.4550000000      13.2818116041      2.2828399545      0.0000000000
1.9976451272           74.5067705454      0.4570000000      13.2777237411      2.2931597922      0.0000000000
2.0052234196           72.3549004565      0.4590000000      13.2735424781      2.3033652931      0.0000000000
2.0127049307           70.2864475057      0.4610000000      13.2692696347      2.3134570019      0.0000000000
2.0200904503           68.2975247099      0.4630000000      13.2649070434      2.3234354826      0.0000000000
2.0273807760           66.3844542360      0.4650000000      13.2604564931      2.3333013172      0.0000000000
2.0345767126           64.5437533569      0.4670000000      13.2559197732      2.3430551055      0.0000000000
2.0416790709           62.7721238556      0.4690000000      13.2512986406      2.3526974632      0.0000000000
