# M(M_sol)                 Lambda          n_Bc(fm^-3)         R(km)            m_B(M_sol)        m_Bquar/M_B
0.1547916704     10551052.6318651363      0.1690000000      16.6489884535      0.1550959316      0.0000000000
0.1620064739      8395032.0040249601      0.1710000000      16.0612689752      0.1624265233      0.0000000000
0.1696009847      6704941.8162619947      0.1730000000      15.5503040727      0.1701523998      0.0000000000
0.1775731448      5375459.0420924528      0.1750000000      15.1049931627      0.1782728167      0.0000000000
0.1859206980      4325999.7318029134      0.1770000000      14.7160888663      0.1867868704      0.0000000000
0.1946410984      3494686.6696084323      0.1790000000      14.3758535181      0.1956934015      0.0000000000
0.2037315183      2833846.7350254264      0.1810000000      14.0777743631      0.2049910002      0.0000000000
0.2131888941      2306652.4466320588      0.1830000000      13.8163558725      0.2146780486      0.0000000000
0.2230098493      1884570.7000012144      0.1850000000      13.5869336591      0.2247526396      0.0000000000
0.2331907194      1545432.7714022857      0.1870000000      13.3855348657      0.2352125979      0.0000000000
0.2437274482      1271962.9628362246      0.1890000000      13.2087524703      0.2460553692      0.0000000000
0.2546157207      1050660.3967628058      0.1910000000      13.0536644700      0.2572781530      0.0000000000
0.2658508675       870940.3636517349      0.1930000000      12.9177477298      0.2688778000      0.0000000000
0.2774279018       724478.8037319995      0.1950000000      12.7988183647      0.2808508455      0.0000000000
0.2893414748       604708.2456516401      0.1970000000      12.6949751521      0.2931934590      0.0000000000
0.3015859060       506430.9751823502      0.1990000000      12.6045597588      0.3059014702      0.0000000000
0.3141552419       425519.3161089183      0.2010000000      12.5261249114      0.3189704263      0.0000000000
0.3270430658       358685.0681693312      0.2030000000      12.4583873794      0.3323953880      0.0000000000
0.3402428191       303300.3649180756      0.2050000000      12.4002311936      0.3461712601      0.0000000000
0.3537474940       257257.8251275590      0.2070000000      12.3506577359      0.3602924654      0.0000000000
0.3675498762       218862.4791221228      0.2090000000      12.3087894587      0.3747531942      0.0000000000
0.3816424316       186746.4267170123      0.2110000000      12.2738428257      0.3895472798      0.0000000000
0.3960173621       159802.4154254512      0.2130000000      12.2451201712      0.4046682529      0.0000000000
0.4106666302       137131.3567638147      0.2150000000      12.2219990900      0.4201093624      0.0000000000
0.4255819336       118000.9134278183      0.2170000000      12.2039198249      0.4358635438      0.0000000000
0.4407547584       101812.8640043733      0.2190000000      12.1903804567      0.4519234708      0.0000000000
0.4561764427        88077.0358307303      0.2210000000      12.1809342777      0.4682816187      0.0000000000
0.4718380553        76390.6463269230      0.2230000000      12.1751713373      0.4849301304      0.0000000000
0.4877305679        66421.7589465972      0.2250000000      12.1727272097      0.5018609963      0.0000000000
0.5038447663        57896.0994651029      0.2270000000      12.1732689060      0.5190659552      0.0000000000
0.5201713363        50586.3589579957      0.2290000000      12.1764971398      0.5365365826      0.0000000000
0.5367008257        44303.6966703082      0.2310000000      12.1821377347      0.5542642457      0.0000000000
0.5534237191        38890.7777573049      0.2330000000      12.1899437414      0.5722401814      0.0000000000
0.5703304295        34216.1920965826      0.2350000000      12.1996906078      0.5904554832      0.0000000000
0.5874112803        30169.9170456094      0.2370000000      12.2111704426      0.6089010796      0.0000000000
0.6046566239        26659.5746584980      0.2390000000      12.2241985475      0.6275678591      0.0000000000
0.6220567301        23607.4523473053      0.2410000000      12.2386024651      0.6464465473      0.0000000000
0.6396019174        20947.9833693255      0.2430000000      12.2542270781      0.6655278472      0.0000000000
0.6572824795        18625.7429170561      0.2450000000      12.2709274078      0.6848023572      0.0000000000
0.6750887757        16593.7578834327      0.2470000000      12.2885735494      0.7042606680      0.0000000000
0.6930112194        14812.1268148056      0.2490000000      12.3070471924      0.7238933492      0.0000000000
0.7110402616        13246.8979685353      0.2510000000      12.3262377576      0.7436909296      0.0000000000
0.7291664316        11869.1060821389      0.2530000000      12.3460438227      0.7636439413      0.0000000000
0.7473803723        10653.9857436821      0.2550000000      12.3663744526      0.7837429577      0.0000000000
0.7656728009         9580.3233624526      0.2570000000      12.3871436191      0.8039785500      0.0000000000
0.7840345814         8629.9119852059      0.2590000000      12.4082751848      0.8243413672      0.0000000000
0.8024566727         7787.0907261544      0.2610000000      12.4296964370      0.8448220784      0.0000000000
0.8209302034         7038.3616905921      0.2630000000      12.4513436072      0.8654114571      0.0000000000
0.8394464253         6372.0739126731      0.2650000000      12.4731560612      0.8861003288      0.0000000000
0.8579967564         5778.1456243231      0.2670000000      12.4950789863      0.9068796204      0.0000000000
0.8765727799         5247.8400582270      0.2690000000      12.5170623046      0.9277403601      0.0000000000
0.8951662457         4773.5712495404      0.2710000000      12.5390595099      0.9486736800      0.0000000000
0.9137690894         4348.7417173260      0.2730000000      12.5610287261      0.9696708389      0.0000000000
0.9323734298         3967.6028213602      0.2750000000      12.5829313292      0.9907232206      0.0000000000
0.9509715762         3625.1365806727      0.2770000000      12.6047320357      1.0118223444      0.0000000000
0.9695560349         3316.9560166586      0.2790000000      12.6263987394      1.0329598739      0.0000000000
0.9881195117         3039.2195461020      0.2810000000      12.6479020663      1.0541276217      0.0000000000
1.0066549166         2788.5575078879      0.2830000000      12.6692153624      1.0753175568      0.0000000000
1.0251553663         2562.0091611182      0.2850000000      12.6903143714      1.0965218101      0.0000000000
1.0436141864         2356.9697793827      0.2870000000      12.7111770844      1.1177326782      0.0000000000
1.0620249121         2171.1435577433      0.2890000000      12.7317834160      1.1389426276      0.0000000000
1.0803812963         2002.5040392142      0.2910000000      12.7521158081      1.1601443059      0.0000000000
1.0986772975         1849.2603336501      0.2930000000      12.7721576450      1.1813305303      0.0000000000
1.1169070930         1709.8271489701      0.2950000000      12.7918946041      1.2024943058      0.0000000000
1.1350650768         1582.7984620349      0.2970000000      12.8113141698      1.2236288249      0.0000000000
1.1531458430         1466.9274634557      0.2990000000      12.8304039873      1.2447274516      0.0000000000
1.1711442178         1361.1038620874      0.3010000000      12.8491550984      1.2657837609      0.0000000000
1.1890552154         1264.3414907410      0.3030000000      12.8675573985      1.2867914902      0.0000000000
1.2068740772         1175.7597083204      0.3050000000      12.8856038877      1.3077445880      0.0000000000
1.2245962410         1094.5733921222      0.3070000000      12.9032873880      1.3286371804      0.0000000000
1.2422173546         1020.0805195849      0.3090000000      12.9206024819      1.3494635901      0.0000000000
1.2597332674          951.6528256856      0.3110000000      12.9375444145      1.3702183291      0.0000000000
1.2771400244          888.7277735666      0.3130000000      12.9541089131      1.3908960941      0.0000000000
1.2944338715          830.8006791809      0.3150000000      12.9702930284      1.4114917763      0.0000000000
1.3116112483          777.4180938813      0.3170000000      12.9860946038      1.4320004548      0.0000000000
1.3286687735          728.1726200655      0.3190000000      13.0015109497      1.4524173824      0.0000000000
1.3456032620          682.6973871888      0.3210000000      13.0165411664      1.4727380079      0.0000000000
1.3624117194          640.6610980683      0.3230000000      13.0311859346      1.4929579740      0.0000000000
1.3790913058          601.7659684119      0.3250000000      13.0454437177      1.5130730739      0.0000000000
1.3956393769          565.7422303351      0.3270000000      13.0593159398      1.5330793056      0.0000000000
1.4120534416          532.3464521028      0.3290000000      13.0728025144      1.5529728217      0.0000000000
1.4283311949          501.3575225458      0.3310000000      13.0859061453      1.5727499727      0.0000000000
1.4444704715          472.5760409622      0.3330000000      13.0986273010      1.5924072523      0.0000000000
1.4604692760          445.8205411536      0.3350000000      13.1109683297      1.6119413370      0.0000000000
1.4763257706          420.9260902281      0.3370000000      13.1229324764      1.6313490735      0.0000000000
1.4920382446          397.7434857131      0.3390000000      13.1345206583      1.6506274431      0.0000000000
1.5076051576          376.1361693840      0.3410000000      13.1457372675      1.6697736176      0.0000000000
1.5230250934          355.9802556133      0.3430000000      13.1565850135      1.6887849037      0.0000000000
1.5382967771          337.1626466220      0.3450000000      13.1670676330      1.7076587674      0.0000000000
1.5534190547          319.5802714899      0.3470000000      13.1771877519      1.7263928100      0.0000000000
1.5683909137          303.1387781725      0.3490000000      13.1869500969      1.7449847954      0.0000000000
1.5832114568          287.7520396803      0.3510000000      13.1963586857      1.7634326202      0.0000000000
1.5978798953          273.3413619905      0.3530000000      13.2054164624      1.7817343063      0.0000000000
1.6123955717          259.8344237750      0.3550000000      13.2141287805      1.7998880315      0.0000000000
1.6267579276          247.1650967922      0.3570000000      13.2224997895      1.8178920910      0.0000000000
1.6409665068          235.2727387120      0.3590000000      13.2305333273      1.8357449023      0.0000000000
1.6550209636          224.1015559738      0.3610000000      13.2382345092      1.8534450178      0.0000000000
1.6689210445          213.6003327975      0.3630000000      13.2456079170      1.8709911033      0.0000000000
1.6826665850          203.7220323912      0.3650000000      13.2526576169      1.8883819348      0.0000000000
1.6962575191          194.4232386202      0.3670000000      13.2593889378      1.9056164123      0.0000000000
1.7096938606          185.6640296195      0.3690000000      13.2658064882      1.9226935376      0.0000000000
1.7229757040          177.4076204260      0.3710000000      13.2719147574      1.9396124160      0.0000000000
1.7361032306          169.6199218401      0.3730000000      13.2777194064      1.9563722660      0.0000000000
1.7490766824          162.2697141887      0.3750000000      13.2832242271      1.9729723865      0.0000000000
1.7618963831          155.3279705096      0.3770000000      13.2884344248      1.9894121854      0.0000000000
1.7745627264          148.7678024824      0.3790000000      13.2933555348      2.0056911648      0.0000000000
1.7870761585          142.5645317869      0.3810000000      13.2979913935      2.0218089001      0.0000000000
1.7994371998          136.6951057493      0.3830000000      13.3023476134      2.0377650689      0.0000000000
1.8116464165          131.1383444579      0.3850000000      13.3064280419      2.0535594144      0.0000000000
1.8237044498          125.8743173199      0.3870000000      13.3102393022      2.0691917855      0.0000000000
1.8356119674          120.8849011620      0.3890000000      13.3137842962      2.0846620727      0.0000000000
1.8473697083          116.1529767493      0.3910000000      13.3170690319      2.0999702688      0.0000000000
1.8589784434          111.6628086409      0.3930000000      13.3200973406      2.1151164172      0.0000000000
1.8704390014          107.3996077599      0.3950000000      13.3228749666      2.1301006466      0.0000000000
1.8817522397          103.3497677480      0.3970000000      13.3254058098      2.1449231344      0.0000000000
1.8929190629           99.5005299048      0.3990000000      13.3276948666      2.1595841294      0.0000000000
1.9039404100           95.8400270827      0.4010000000      13.3297467757      2.1740839379      0.0000000000
1.9148172506           92.3572320144      0.4030000000      13.3315655547      2.1884229174      0.0000000000
1.9255505974           89.0417410603      0.4050000000      13.3331568494      2.2026014947      0.0000000000
1.9361414773           85.8840239828      0.4070000000      13.3345238556      2.2166201271      0.0000000000
1.9465909589           82.8750241335      0.4090000000      13.3356718559      2.2304793403      0.0000000000
1.9569001265           80.0063785304      0.4110000000      13.3366044428      2.2441796928      0.0000000000
1.9670700984           77.2701808971      0.4130000000      13.3373267945      2.2577218021      0.0000000000
1.9771020055           74.6591250391      0.4150000000      13.3378425007      2.2711063151      0.0000000000
1.9869970072           72.1662681542      0.4170000000      13.3381563850      2.2843339307      0.0000000000
1.9967562742           69.7852137961      0.4190000000      13.3382720974      2.2974053763      0.0000000000
2.0063809996           67.5098897013      0.4210000000      13.3381940127      2.3103214227      0.0000000000
2.0158723903           65.3346339139      0.4230000000      13.3379262589      2.3230828739      0.0000000000
2.0252316621           63.2541609986      0.4250000000      13.3374720877      2.3356905590      0.0000000000
2.0344600526           61.2634499091      0.4270000000      13.3368361412      2.3481453509      0.0000000000
2.0435588053           59.3578104284      0.4290000000      13.3360222286      2.3604481447      0.0000000000
2.0525291725           57.5328596946      0.4310000000      13.3350338853      2.3725998612      0.0000000000
2.0613724185           55.7844265634      0.4330000000      13.3338752398      2.3846014523      0.0000000000
2.0700898116           54.1086430136      0.4350000000      13.3325497055      2.3964538888      0.0000000000
2.0786826265           52.5018436032      0.4370000000      13.3310607554      2.4081581650      0.0000000000
2.0871521455           50.9605743429      0.4390000000      13.3294121856      2.4197152995      0.0000000000
2.0954996534           49.4815763847      0.4410000000      13.3276074676      2.4311263287      0.0000000000
2.1037264392           48.0617812696      0.4430000000      13.3256502442      2.4423923089      0.0000000000
2.1118337919           46.6983044366      0.4450000000      13.3235437437      2.4535143104      0.0000000000
2.1198230036           45.3884271318      0.4470000000      13.3212913794      2.4644934220      0.0000000000
2.1276953633           44.1295845286      0.4490000000      13.3188960565      2.4753307423      0.0000000000
2.1354521653           42.9193302618      0.4510000000      13.3163614892      2.4860273909      0.0000000000
2.1430946997           41.7553715139      0.4530000000      13.3136908585      2.4965844957      0.0000000000
2.1506242526           40.6355502909      0.4550000000      13.3108869727      2.5070031929      0.0000000000
2.1580421093           39.5578149349      0.4570000000      13.3079528636      2.5172846311      0.0000000000
2.1653495524           38.5202285606      0.4590000000      13.3048915986      2.5274299690      0.0000000000
2.1725478617           37.5209405125      0.4610000000      13.3017064408      2.5374403746      0.0000000000
2.1796383099           36.5582254206      0.4630000000      13.2984001100      2.5473170198      0.0000000000
2.1866221648           35.6304388530      0.4650000000      13.2949752537      2.5570610825      0.0000000000
2.1935006900           34.7360255926      0.4670000000      13.2914347785      2.5666737481      0.0000000000
2.2002751431           33.8734950458      0.4690000000      13.2877815307      2.5761562067      0.0000000000
2.2069467747           33.0414540534      0.4710000000      13.2840181502      2.5855096512      0.0000000000
2.2135168279           32.2385766155      0.4730000000      13.2801471776      2.5947352769      0.0000000000
2.2199865403           31.4635893160      0.4750000000      13.2761714327      2.6038342838      0.0000000000
2.2263571403           30.7153033878      0.4770000000      13.2720934082      2.6128078717      0.0000000000
2.2326298450           29.9925966517      0.4790000000      13.2679149145      2.6216572365      0.0000000000
2.2388058731           29.2943529858      0.4810000000      13.2636395990      2.6303835887      0.0000000000
2.2448864223           28.6195790724      0.4830000000      13.2592687050      2.6389881208      0.0000000000
2.2508726904           27.9672860437      0.4850000000      13.2548052085      2.6474720375      0.0000000000
2.2567658629           27.3365396327      0.4870000000      13.2502513397      2.6558365380      0.0000000000
2.2625671153           26.7264613205      0.4890000000      13.2456093141      2.6640828184      0.0000000000
2.2682776144           26.1362095305      0.4910000000      13.2408813588      2.6722120740      0.0000000000
2.2738985165           25.5649800929      0.4930000000      13.2360696557      2.6802254963      0.0000000000
2.2794309687           25.0120151962      0.4950000000      13.2311763933      2.6881242749      0.0000000000
2.2848761045           24.4765955759      0.4970000000      13.2262031010      2.6959095907      0.0000000000
2.2902350548           23.9580064758      0.4990000000      13.2211528044      2.7035826316      0.0000000000
2.2955089303           23.4556095780      0.5010000000      13.2160265216      2.7111445672      0.0000000000
2.3006988389           22.9687614298      0.5030000000      13.2108268782      2.7185965735      0.0000000000
2.3058058747           22.4968634159      0.5050000000      13.2055556934      2.7259398170      0.0000000000
2.3108311196           22.0393461494      0.5070000000      13.2002146504      2.7331754567      0.0000000000
2.3157756461           21.5956600971      0.5090000000      13.1948055995      2.7403046479      0.0000000000
2.3206405164           21.1652808158      0.5110000000      13.1893304382      2.7473285409      0.0000000000
2.3254267801           20.7477113707      0.5130000000      13.1837908023      2.7542482773      0.0000000000
2.3301354772           20.3424748125      0.5150000000      13.1781885613      2.7610649945      0.0000000000
2.3347676373           19.9491028593      0.5170000000      13.1725256485      2.7677798241      0.0000000000
2.3393242751           19.5671743173      0.5190000000      13.1668032853      2.7743938850      0.0000000000
2.3438063978           19.1962640093      0.5210000000      13.1610233567      2.7809082945      0.0000000000
2.3482149995           18.8359768858      0.5230000000      13.1551873034      2.7873241594      0.0000000000
2.3525510657           18.4859223181      0.5250000000      13.1492970510      2.7936425828      0.0000000000
2.3568155656           18.1457447867      0.5270000000      13.1433535334      2.7998646528      0.0000000000
