# M(M_sol)                 Lambda          n_Bc(fm^-3)         R(km)            m_B(M_sol)        m_Bquar/M_B
0.1509956912     45032311.6002118513      0.0960000000      23.5238615099      0.1512149476      0.0000000000
0.1563536044     37892644.5103763714      0.0980000000      22.6431717506      0.1566463276      0.0000000000
0.1618052993     32065793.0313038267      0.1000000000      21.8742860778      0.1621769366      0.0000000000
0.1673467605     27270544.9423103817      0.1020000000      21.1982354080      0.1678028865      0.0000000000
0.1729744307     23296368.8744799048      0.1040000000      20.6000316592      0.1735207470      0.0000000000
0.1786851564     19982520.6465217434      0.1060000000      20.0676851655      0.1793274914      0.0000000000
0.1844761365     17204337.0678476878      0.1080000000      19.5914962284      0.1852204461      0.0000000000
0.1903448858     14863920.0384934898      0.1100000000      19.1635412421      0.1911972539      0.0000000000
0.1962892010     12883565.6881989706      0.1120000000      18.7772860968      0.1972558402      0.0000000000
0.2022550442     11214399.1903381962      0.1140000000      18.4301652790      0.2033412322      0.0000000000
0.2081760217      9813994.4951810949      0.1160000000      18.1199553160      0.2093856651      0.0000000000
0.2141029080      8621512.4054806065      0.1180000000      17.8388766917      0.2154409153      0.0000000000
0.2200491753      7598794.5862208782      0.1200000000      17.5825317265      0.2215207687      0.0000000000
0.2260216385      6716951.9528034134      0.1220000000      17.3476098522      0.2276322412      0.0000000000
0.2320247252      5953156.3384405943      0.1240000000      17.1314521722      0.2337799265      0.0000000000
0.2380617167      5288996.2119209217      0.1260000000      16.9318609050      0.2399672580      0.0000000000
0.2441352627      4709435.5524760997      0.1280000000      16.7469897018      0.2461970332      0.0000000000
0.2502476270      4202075.1088659400      0.1300000000      16.5752694119      0.2524716634      0.0000000000
0.2564008256      3756614.0795242744      0.1320000000      16.4153544248      0.2587933136      0.0000000000
0.2625967018      3364437.6913323426      0.1340000000      16.2660824057      0.2651639794      0.0000000000
0.2688369754      3018300.9779939242      0.1360000000      16.1264426235      0.2715855367      0.0000000000
0.2751232731      2712081.6027834695      0.1380000000      15.9955524259      0.2780597726      0.0000000000
0.2814571460      2440580.4957475425      0.1400000000      15.8726359495      0.2845884034      0.0000000000
0.2878400850      2199365.1797843040      0.1420000000      15.7570090350      0.2911730899      0.0000000000
0.2942735271      1984641.9315248141      0.1440000000      15.6480655109      0.2978154439      0.0000000000
0.3007588621      1793152.3561190786      0.1460000000      15.5452665375      0.3045170350      0.0000000000
0.3072974346      1622088.3984916790      0.1480000000      15.4481312083      0.3112793927      0.0000000000
0.3138905467      1469022.4347814592      0.1500000000      15.3562289576      0.3181040087      0.0000000000
0.3205394603      1331849.8138181081      0.1520000000      15.2691734280      0.3249923398      0.0000000000
0.3272453938      1208740.5751805042      0.1540000000      15.1866163998      0.3319458037      0.0000000000
0.3340095339      1098099.5830500899      0.1560000000      15.1082435845      0.3389657917      0.0000000000
0.3408329987       998533.2829424739      0.1580000000      15.0337702644      0.3460536301      0.0000000000
0.3477168893       908820.6151365518      0.1600000000      14.9629382244      0.3532106338      0.0000000000
0.3546622514       827889.8324902822      0.1620000000      14.8955120719      0.3604380661      0.0000000000
0.3616700871       754798.2228691311      0.1640000000      14.8312776506      0.3677371512      0.0000000000
0.3687413494       688714.7103333672      0.1660000000      14.7700389190      0.3751090677      0.0000000000
0.3758769434       628905.3199924005      0.1680000000      14.7116163445      0.3825549510      0.0000000000
0.3830777237       574720.5174428547      0.1700000000      14.6558449572      0.3900758888      0.0000000000
0.3903444932       525584.7812585958      0.1720000000      14.6025733906      0.3976729211      0.0000000000
0.3976780011       480986.9006599392      0.1740000000      14.5516617228      0.4053470373      0.0000000000
0.4050789425       440472.5243736576      0.1760000000      14.5029811557      0.4130991756      0.0000000000
0.4125479504       403636.8068986182      0.1780000000      14.4564122246      0.4209302146      0.0000000000
0.4200856179       370118.6301905413      0.1800000000      14.4118442116      0.4288409965      0.0000000000
0.4276924617       339595.5893247153      0.1820000000      14.3691745470      0.4368322883      0.0000000000
0.4353689452       311779.1915831129      0.1840000000      14.3283076226      0.4449048061      0.0000000000
0.4431154710       286411.1337756308      0.1860000000      14.2891544292      0.4530592066      0.0000000000
0.4509323788       263259.7999908761      0.1880000000      14.2516318770      0.4612960853      0.0000000000
0.4588199461       242117.2049389571      0.1900000000      14.2156622163      0.4696159763      0.0000000000
0.4667783884       222796.4763245341      0.1920000000      14.1811728560      0.4780193527      0.0000000000
0.4748078529       205129.4673834640      0.1940000000      14.1480953754      0.4865066193      0.0000000000
0.4829084267       188964.6942188420      0.1960000000      14.1163658078      0.4950781214      0.0000000000
0.4910801284       174165.6132424610      0.1980000000      14.0859238245      0.5037341353      0.0000000000
0.4993229119       160608.9700780022      0.2000000000      14.0567125686      0.5124748719      0.0000000000
0.5076366644       148183.4596356631      0.2020000000      14.0286783695      0.5213004744      0.0000000000
0.5160212081       136788.4106905235      0.2040000000      14.0017705950      0.5302110200      0.0000000000
0.5244762982       126332.7552563517      0.2060000000      13.9759412751      0.5392065169      0.0000000000
0.5330016240       116733.9904669945      0.2080000000      13.9511448790      0.5482869057      0.0000000000
0.5415968086       107917.3587143941      0.2100000000      13.9273383076      0.5574520578      0.0000000000
0.5502614107        99815.0455439817      0.2120000000      13.9044805297      0.5667017781      0.0000000000
0.5589949209        92365.4856147508      0.2140000000      13.8825325890      0.5760357997      0.0000000000
0.5677967678        85512.7579155568      0.2160000000      13.8614572953      0.5854537905      0.0000000000
0.5766663146        79206.0281801617      0.2180000000      13.8412191478      0.5949553487      0.0000000000
0.5856028616        73399.0587845682      0.2200000000      13.8217843295      0.6045400059      0.0000000000
0.5946056471        68049.7629105579      0.2220000000      13.8031205119      0.6142072263      0.0000000000
0.6036738464        63119.8116091957      0.2240000000      13.7851966855      0.6239564068      0.0000000000
0.6128065764        58574.2708939962      0.2260000000      13.7679832896      0.6337868800      0.0000000000
0.6220028917        54381.2898806001      0.2280000000      13.7514517133      0.6436979106      0.0000000000
0.6312617919        50511.8075558666      0.2300000000      13.7355748399      0.6536887024      0.0000000000
0.6405822172        46939.3001812339      0.2320000000      13.7203263650      0.6637583929      0.0000000000
0.6499630541        43639.5384388434      0.2340000000      13.7056811754      0.6739060597      0.0000000000
0.6594031343        40590.3766903853      0.2360000000      13.6916149376      0.6841307179      0.0000000000
0.6689012369        37771.5807754819      0.2380000000      13.6781043981      0.6944313229      0.0000000000
0.6784560912        35164.6333649470      0.2400000000      13.6651270705      0.7048067725      0.0000000000
0.6880663760        32752.5897288120      0.2420000000      13.6526612293      0.7152559059      0.0000000000
0.6977307241        30519.9380863504      0.2440000000      13.6406860376      0.7257775079      0.0000000000
0.7074477225        28452.4682304582      0.2460000000      13.6291813830      0.7363703091      0.0000000000
0.7172159142        26537.1550710485      0.2480000000      13.6181277092      0.7470329869      0.0000000000
0.7270338005        24762.0654696324      0.2500000000      13.6075062813      0.7577641680      0.0000000000
0.7368998432        23116.2475107149      0.2520000000      13.5972989303      0.7685624304      0.0000000000
0.7468124662        21589.6549756773      0.2540000000      13.5874881270      0.7794263042      0.0000000000
0.7567700577        20173.0637480637      0.2560000000      13.5780568321      0.7903542744      0.0000000000
0.7667709725        18858.0063987259      0.2580000000      13.5689887153      0.8013447824      0.0000000000
0.7768135332        17636.7020765138      0.2600000000      13.5602678691      0.8123962270      0.0000000000
0.7868960333        16502.0003127457      0.2620000000      13.5518789452      0.8235069681      0.0000000000
0.7970167387        15447.3269752854      0.2640000000      13.5438070777      0.8346753271      0.0000000000
0.8071738906        14466.6344253006      0.2660000000      13.5360379171      0.8458995900      0.0000000000
0.8173657062        13554.3601887222      0.2680000000      13.5285575437      0.8571780085      0.0000000000
0.8275903822        12705.3829411330      0.2700000000      13.5213524662      0.8685088024      0.0000000000
0.8378460962        11914.9868946616      0.2720000000      13.5144096455      0.8798901620      0.0000000000
0.8481310091        11178.8288578510      0.2740000000      13.5077165140      0.8913202498      0.0000000000
0.8584432670        10492.9064044297      0.2760000000      13.5012608551      0.9027972022      0.0000000000
0.8687810027         9853.5309312185      0.2780000000      13.4950308249      0.9143191317      0.0000000000
0.8791423399         9257.2988408320      0.2800000000      13.4890150015      0.9258841302      0.0000000000
0.8895253923         8701.0720187054      0.2820000000      13.4832023113      0.9374902689      0.0000000000
0.8999282676         8181.9549848144      0.2840000000      13.4775820616      0.9491356018      0.0000000000
0.9103490692         7697.2737747019      0.2860000000      13.4721439444      0.9608181676      0.0000000000
0.9207858969         7244.5597809467      0.2880000000      13.4668779005      0.9725359907      0.0000000000
0.9312368507         6821.5318070419      0.2900000000      13.4617742554      0.9842870844      0.0000000000
0.9417000311         6426.0819881964      0.2920000000      13.4568236641      0.9960694522      0.0000000000
0.9521735417         6056.2625518503      0.2940000000      13.4520170781      1.0078810897      0.0000000000
0.9626554902         5710.2717051242      0.2960000000      13.4473457635      1.0197199861      0.0000000000
0.9731439917         5386.4423198331      0.2980000000      13.4428012900      1.0315841276      0.0000000000
0.9836371683         5083.2318607443      0.3000000000      13.4383754819      1.0434714970      0.0000000000
0.9941331525         4799.2121101463      0.3020000000      13.4340604832      1.0553800777      0.0000000000
1.0046300874         4533.0613293079      0.3040000000      13.4298486901      1.0673078531      0.0000000000
1.0151261297         4283.5539295785      0.3060000000      13.4257328293      1.0792528111      0.0000000000
1.0256194500         4049.5550597489      0.3080000000      13.4217057879      1.0912129436      0.0000000000
1.0361082328         3830.0120642676      0.3100000000      13.4177607605      1.1031862466      0.0000000000
1.0465906819         3623.9488956299      0.3120000000      13.4138912146      1.1151707269      0.0000000000
1.0570650181         3430.4605274501      0.3140000000      13.4100907912      1.1271643989      0.0000000000
1.0675294823         3248.7065571730      0.3160000000      13.4063534628      1.1391652885      0.0000000000
1.0779823355         3077.9070964073      0.3180000000      13.4026733050      1.1511714330      0.0000000000
1.0884218604         2917.3379223141      0.3200000000      13.3990447331      1.1631808835      0.0000000000
1.0988463634         2766.3259723457      0.3220000000      13.3954623598      1.1751917065      0.0000000000
1.1092541733         2624.2461754956      0.3240000000      13.3919209142      1.1872019833      0.0000000000
1.1196436447         2490.5172217196      0.3260000000      13.3884154405      1.1992098134      0.0000000000
1.1300131576         2364.5985534096      0.3280000000      13.3849411513      1.2112133147      0.0000000000
1.1403611182         2245.9872317412      0.3300000000      13.3814934376      1.2232106244      0.0000000000
1.1506859600         2134.2155217372      0.3320000000      13.3780678849      1.2351998999      0.0000000000
1.1609861447         2028.8476622922      0.3340000000      13.3746602696      1.2471793208      0.0000000000
1.1712601621         1929.4781253565      0.3360000000      13.3712665551      1.2591470889      0.0000000000
1.1815065317         1835.7289589010      0.3380000000      13.3678828435      1.2711014294      0.0000000000
1.1917238025         1747.2480191722      0.3400000000      13.3645054703      1.2830405921      0.0000000000
1.2019105535         1663.7071003618      0.3420000000      13.3611308628      1.2949628510      0.0000000000
1.2120653952         1584.8000043496      0.3440000000      13.3577556805      1.3068665072      0.0000000000
1.2221869683         1510.2412582334      0.3460000000      13.3543766879      1.3187498869      0.0000000000
1.2322739452         1439.7643214200      0.3480000000      13.3509907918      1.3306113443      0.0000000000
1.2423250305         1373.1204872451      0.3500000000      13.3475950952      1.3424492611      0.0000000000
1.2523389601         1310.0774917732      0.3520000000      13.3441868098      1.3542620470      0.0000000000
1.2623145027         1250.4182880251      0.3540000000      13.3407632871      1.3660481409      0.0000000000
1.2722504590         1193.9401716488      0.3560000000      13.3373220169      1.3778060106      0.0000000000
1.2821456624         1140.4535995487      0.3580000000      13.3338606134      1.3895341536      0.0000000000
1.2919989788         1089.7812827807      0.3600000000      13.3303768190      1.4012310974      0.0000000000
1.3018093069         1041.7574755709      0.3620000000      13.3268685088      1.4128954000      0.0000000000
1.3115755777          996.2270526282      0.3640000000      13.3233336540      1.4245256498      0.0000000000
1.3212967553          953.0447804270      0.3660000000      13.3197703333      1.4361204660      0.0000000000
1.3309718360          912.0746577810      0.3680000000      13.3161767769      1.4476784992      0.0000000000
1.3405998488          873.1893573503      0.3700000000      13.3125512877      1.4591984309      0.0000000000
1.3501798548          836.2695364424      0.3720000000      13.3088922674      1.4706789739      0.0000000000
1.3597109476          801.2032937580      0.3740000000      13.3051982652      1.4821188731      0.0000000000
1.3691922525          767.8857622411      0.3760000000      13.3014678244      1.4935169041      0.0000000000
1.3786229272          736.2185494909      0.3780000000      13.2976996942      1.5048718750      0.0000000000
1.3880021598          706.1093383118      0.3800000000      13.2938926456      1.5161826240      0.0000000000
1.3973291707          677.4715055874      0.3820000000      13.2900455477      1.5274480223      0.0000000000
1.4066032110          650.2237161468      0.3840000000      13.2861573719      1.5386669719      0.0000000000
1.4158235625          624.2895101530      0.3860000000      13.2822271371      1.5498384063      0.0000000000
1.4249895376          599.5971583958      0.3880000000      13.2782539740      1.5609612903      0.0000000000
1.4341004784          576.0791900285      0.3900000000      13.2742370560      1.5720346197      0.0000000000
1.4431557568          553.6721507943      0.3920000000      13.2701756615      1.5830574216      0.0000000000
1.4521547741          532.3164108473      0.3940000000      13.2660690947      1.5940287534      0.0000000000
1.4610969604          511.9558557205      0.3960000000      13.2619167658      1.6049477035      0.0000000000
1.4699817743          492.5376736647      0.3980000000      13.2577181042      1.6158133904      0.0000000000
1.4788087026          474.0121305783      0.4000000000      13.2534726642      1.6266249631      0.0000000000
1.4875772594          456.3324578630      0.4020000000      13.2491799899      1.6373815997      0.0000000000
1.4962869865          439.4545035709      0.4040000000      13.2448397380      1.6480825088      0.0000000000
1.5049374520          423.3367543409      0.4060000000      13.2404515602      1.6587269274      0.0000000000
1.5135282505          407.9400317469      0.4080000000      13.2360152131      1.6693141220      0.0000000000
1.5220590024          393.2273955808      0.4100000000      13.2315304829      1.6798433877      0.0000000000
1.5305293534          379.1640188953      0.4120000000      13.2269971950      1.6903140476      0.0000000000
1.5389389740          365.7170489280      0.4140000000      13.2224152394      1.7007254528      0.0000000000
1.5472875591          352.8554492805      0.4160000000      13.2177845030      1.7110769822      0.0000000000
1.5555748276          340.5499508231      0.4180000000      13.2131049808      1.7213680416      0.0000000000
1.5638005216          328.7729005950      0.4200000000      13.2083766617      1.7315980639      0.0000000000
1.5719644061          317.4981784867      0.4220000000      13.2035995895      1.7417665082      0.0000000000
1.5800662687          306.7010868688      0.4240000000      13.1987738223      1.7518728597      0.0000000000
1.5881059185          296.3583043643      0.4260000000      13.1938994774      1.7619166290      0.0000000000
1.5960831863          286.4477735292      0.4280000000      13.1889766962      1.7718973523      0.0000000000
1.6039979238          276.9486119975      0.4300000000      13.1840056575      1.7818145904      0.0000000000
1.6118500027          267.8410917888      0.4320000000      13.1789865336      1.7916679280      0.0000000000
1.6196393150          259.1065155999      0.4340000000      13.1739195888      1.8014569746      0.0000000000
1.6273657720          250.7272065474      0.4360000000      13.1688050561      1.8111813624      0.0000000000
1.6350293036          242.6864167515      0.4380000000      13.1636432182      1.8208407471      0.0000000000
1.6426298583          234.9682756153      0.4400000000      13.1584343817      1.8304348067      0.0000000000
1.6501674027          227.5577555455      0.4420000000      13.1531788574      1.8399632417      0.0000000000
1.6576419205          220.4406025336      0.4440000000      13.1478770195      1.8494257742      0.0000000000
1.6650534125          213.6033059001      0.4460000000      13.1425292089      1.8588221476      0.0000000000
1.6724018958          207.0330686956      0.4480000000      13.1371358207      1.8681521258      0.0000000000
1.6796874038          200.7177303199      0.4500000000      13.1316972585      1.8774154938      0.0000000000
1.6869099852          194.6457582796      0.4520000000      13.1262139516      1.8866120563      0.0000000000
1.6940697038          188.8062144593      0.4540000000      13.1206863164      1.8957416370      0.0000000000
