# M(M_sol)                 Lambda          n_Bc(fm^-3)         R(km)            m_B(M_sol)        m_Bquar/M_B
0.1515659912     40258539.9210125431      0.1040000000      22.8854375914      0.1517847486      0.0000000000
0.1561582608     34560541.0875684023      0.1060000000      22.1403990863      0.1564394487      0.0000000000
0.1608367781     29780660.7551514357      0.1080000000      21.4751863625      0.1611846923      0.0000000000
0.1655997961     25748576.8164521270      0.1100000000      20.8783213320      0.1660188676      0.0000000000
0.1704458197     22330909.0005604997      0.1120000000      20.3403810200      0.1709406175      0.0000000000
0.1753435463     19437932.0961683057      0.1140000000      19.8563614242      0.1759182791      0.0000000000
0.1802287083     17005645.9003978781      0.1160000000      19.4241297552      0.1808865682      0.0000000000
0.1851419300     14930769.1606741175      0.1180000000      19.0328111634      0.1858868090      0.0000000000
0.1900949282     13148188.2655628026      0.1200000000      18.6761557883      0.1909309898      0.0000000000
0.1950935558     11608821.9633741528      0.1220000000      18.3495012857      0.1960251555      0.0000000000
0.2001416750     10273845.0170189291      0.1240000000      18.0491123571      0.2011733369      0.0000000000
0.2052422221      9111879.1576022338      0.1260000000      17.7719087832      0.2063786325      0.0000000000
0.2103976274      8097225.2235883968      0.1280000000      17.5153062023      0.2116436337      0.0000000000
0.2156100239      7208622.3041240089      0.1300000000      17.2771111980      0.2169706361      0.0000000000
0.2208813459      6428347.9779263623      0.1320000000      17.0554446394      0.2223617404      0.0000000000
0.2262133969      5741531.7212214507      0.1340000000      16.8486849025      0.2278189204      0.0000000000
0.2316078809      5135625.8097900981      0.1360000000      16.6554235457      0.2333440553      0.0000000000
0.2370664293      4599988.8488141159      0.1380000000      16.4744302043      0.2389389570      0.0000000000
0.2425906106      4125558.7342306538      0.1400000000      16.3046249337      0.2446053793      0.0000000000
0.2481819440      3704585.3636285141      0.1420000000      16.1450554979      0.2503450330      0.0000000000
0.2538418992      3330415.7585148024      0.1440000000      15.9948781201      0.2561595843      0.0000000000
0.2595719038      2997321.2874353728      0.1460000000      15.8533433087      0.2620506632      0.0000000000
0.2653733432      2700351.6836332716      0.1480000000      15.7197816390      0.2680198633      0.0000000000
0.2712475608      2435218.7193981158      0.1500000000      15.5935941720      0.2740687414      0.0000000000
0.2771958571      2198196.5833150400      0.1520000000      15.4742427875      0.2801988174      0.0000000000
0.2832194999      1986039.5850716878      0.1540000000      15.3612427143      0.2864115841      0.0000000000
0.2893196883      1795914.7867391882      0.1560000000      15.2541560824      0.2927084705      0.0000000000
0.2954975984      1625342.2516315205      0.1580000000      15.1525857669      0.2990908883      0.0000000000
0.3017543526      1472147.9998843528      0.1600000000      15.0561713434      0.3055602012      0.0000000000
0.3080910234      1334421.5927067923      0.1620000000      14.9645844581      0.3121177276      0.0000000000
0.3145086343      1210480.8704432375      0.1640000000      14.8775250647      0.3187647420      0.0000000000
0.3210081540      1098842.9474781451      0.1660000000      14.7947190668      0.3255024693      0.0000000000
0.3275904978       998197.5083529736      0.1680000000      14.7159146993      0.3323320853      0.0000000000
0.3342565247       907385.0983864638      0.1700000000      14.6408805969      0.3392547142      0.0000000000
0.3410070357       825378.4811221580      0.1720000000      14.5694038447      0.3462714264      0.0000000000
0.3478427707       751265.7617488903      0.1740000000      14.5012874564      0.3533832355      0.0000000000
0.3547644043       684236.6704783880      0.1760000000      14.4363495848      0.3605910932      0.0000000000
0.3617725616       623570.2337429746      0.1780000000      14.3744216427      0.3678959060      0.0000000000
0.3688677887       568624.0228467291      0.1800000000      14.3153470233      0.3752985041      0.0000000000
0.3760505701       518824.9515759600      0.1820000000      14.2589800451      0.3827996595      0.0000000000
0.3833213226       473661.2643881007      0.1840000000      14.2051849770      0.3904000790      0.0000000000
0.3906803931       432675.4789241772      0.1860000000      14.1538350504      0.3981004024      0.0000000000
0.3981280609       395457.9956814251      0.1880000000      14.1048116300      0.4059012035      0.0000000000
0.4056645315       361642.1110295458      0.1900000000      14.0580038126      0.4138029845      0.0000000000
0.4132899398       330898.8711781902      0.1920000000      14.0133072997      0.4218061783      0.0000000000
0.4210043475       302933.0983025573      0.1940000000      13.9706242306      0.4299111457      0.0000000000
0.4288077440       277479.5467992499      0.1960000000      13.9298623087      0.4381181762      0.0000000000
0.4367000433       254299.8873184522      0.1980000000      13.8909347175      0.4464274838      0.0000000000
0.4446810863       233179.5988992070      0.2000000000      13.8537594131      0.4548392098      0.0000000000
0.4527506384       213925.5496663878      0.2020000000      13.8182587893      0.4633534192      0.0000000000
0.4609083918       196363.6976944979      0.2040000000      13.7843594911      0.4719701034      0.0000000000
0.4691539625       180337.1204265495      0.2060000000      13.7519917852      0.4806891759      0.0000000000
0.4774868939       165704.1960067819      0.2080000000      13.7210897147      0.4895104763      0.0000000000
0.4859066543       152337.0750749191      0.2100000000      13.6915904882      0.4984337670      0.0000000000
0.4944126382       140120.2241043555      0.2120000000      13.6634343100      0.5074587338      0.0000000000
0.5030041678       128949.2073024933      0.2140000000      13.6365643366      0.5165849876      0.0000000000
0.5116804923       118729.5453178138      0.2160000000      13.6109263109      0.5258120628      0.0000000000
0.5204407896       109375.7277574955      0.2180000000      13.5864684308      0.5351394186      0.0000000000
0.5292841671       100810.3112558736      0.2200000000      13.5631412580      0.5445664396      0.0000000000
0.5382096628        92963.1124410538      0.2220000000      13.5408974754      0.5540924365      0.0000000000
0.5472162458        85770.5321967882      0.2240000000      13.5196918436      0.5637166456      0.0000000000
0.5563028187        79174.8529870407      0.2260000000      13.4994809132      0.5734382314      0.0000000000
0.5654682179        73123.7083882264      0.2280000000      13.4802231692      0.5832562865      0.0000000000
0.5747112163        67569.5557802799      0.2300000000      13.4618787027      0.5931698332      0.0000000000
0.5840305234        62469.2044696579      0.2320000000      13.4444092878      0.6031778241      0.0000000000
0.5934247883        57783.4006955421      0.2340000000      13.4277780478      0.6132791439      0.0000000000
0.6028926013        53476.4560977755      0.2360000000      13.4119497247      0.6234726110      0.0000000000
0.6124324945        49515.9007013077      0.2380000000      13.3968902797      0.6337569780      0.0000000000
0.6220429454        45872.1963999469      0.2400000000      13.3825670269      0.6441309341      0.0000000000
0.6317223779        42518.4433921102      0.2420000000      13.3689484932      0.6545931067      0.0000000000
0.6414691651        39430.1376896496      0.2440000000      13.3560043834      0.6651420631      0.0000000000
0.6512816302        36584.9577388064      0.2460000000      13.3437054707      0.6757763115      0.0000000000
0.6611580498        33962.5521675144      0.2480000000      13.3320236439      0.6864943037      0.0000000000
0.6710966561        31544.3561637804      0.2500000000      13.3209317261      0.6972944374      0.0000000000
0.6810956385        29313.4370210914      0.2520000000      13.3104036450      0.7081750571      0.0000000000
0.6911531461        27254.3400098274      0.2540000000      13.3004141267      0.7191344564      0.0000000000
0.7012672907        25352.9495524119      0.2560000000      13.2909389060      0.7301708810      0.0000000000
0.7114361483        23596.3711886276      0.2580000000      13.2819544310      0.7412825296      0.0000000000
0.7216577621        21972.8247593500      0.2600000000      13.2734381520      0.7524675570      0.0000000000
0.7319301444        20471.5372032778      0.2620000000      13.2653681829      0.7637240756      0.0000000000
0.7422512793        19082.6580424301      0.2640000000      13.2577234428      0.7750501582      0.0000000000
0.7526191251        17797.1722595377      0.2660000000      13.2504835949      0.7864438396      0.0000000000
0.7630316166        16606.8306271376      0.2680000000      13.2436290301      0.7979031196      0.0000000000
0.7734866676        15504.0774418192      0.2700000000      13.2371407517      0.8094259647      0.0000000000
0.7839821732        14481.9909809816      0.2720000000      13.2310004826      0.8210103106      0.0000000000
0.7945160122        13534.2308626220      0.2740000000      13.2251906163      0.8326540644      0.0000000000
0.8050860494        12654.9823510269      0.2760000000      13.2196941039      0.8443551070      0.0000000000
0.8156901382        11838.9119771467      0.2780000000      13.2144945514      0.8561112957      0.0000000000
0.8263261222        11081.1285402845      0.2800000000      13.2095760698      0.8679204650      0.0000000000
0.8369918382        10377.1405687309      0.2820000000      13.2049233997      0.8797804309      0.0000000000
0.8476851181         9722.8246335294      0.2840000000      13.2005218014      0.8916889917      0.0000000000
0.8584037910         9114.3933208765      0.2860000000      13.1963570679      0.9036439308      0.0000000000
0.8691456856         8548.3654367560      0.2880000000      13.1924154776      0.9156430188      0.0000000000
0.8799086320         8021.5415289101      0.2900000000      13.1886838310      0.9276840151      0.0000000000
0.8906904636         7530.9790250501      0.2920000000      13.1851494144      0.9397646707      0.0000000000
0.9014890201         7073.9688256571      0.2940000000      13.1817999357      0.9518827309      0.0000000000
0.9123021478         6648.0206102197      0.2960000000      13.1786236175      0.9640359350      0.0000000000
0.9231277028         6250.8390139428      0.2980000000      13.1756090901      0.9762220212      0.0000000000
0.9339635524         5880.3098936896      0.3000000000      13.1727453840      0.9884387265      0.0000000000
0.9448075765         5534.4865043936      0.3020000000      13.1700219858      1.0006837892      0.0000000000
0.9556576707         5211.5721374742      0.3040000000      13.1674287352      1.0129549521      0.0000000000
0.9665117446         4909.9116273655      0.3060000000      13.1649559135      1.0252499608      0.0000000000
0.9773677278         4627.9764444525      0.3080000000      13.1625941583      1.0375665700      0.0000000000
0.9882235682         4364.3570469683      0.3100000000      13.1603344208      1.0499025417      0.0000000000
0.9990772349         4117.7509101592      0.3120000000      13.1581681015      1.0622556492      0.0000000000
1.0099267187         3886.9554358722      0.3140000000      13.1560868717      1.0746236767      0.0000000000
1.0207700341         3670.8591722748      0.3160000000      13.1540827672      1.0870044225      0.0000000000
1.0316052204         3468.4347054843      0.3180000000      13.1521481400      1.0993956996      0.0000000000
1.0424303423         3278.7315960559      0.3200000000      13.1502756272      1.1117953373      0.0000000000
1.0532434922         3100.8707774642      0.3220000000      13.1484582313      1.1242011830      0.0000000000
1.0640427898         2934.0383403371      0.3240000000      13.1466892218      1.1366111032      0.0000000000
1.0748263841         2777.4811610106      0.3260000000      13.1449621178      1.1490229842      0.0000000000
1.0855924542         2630.5009445625      0.3280000000      13.1432707925      1.1614347348      0.0000000000
1.0963392096         2492.4511010877      0.3300000000      13.1416092699      1.1738442858      0.0000000000
1.1070648914         2362.7320542800      0.3320000000      13.1399719571      1.1862495922      0.0000000000
1.1177677733         2240.7876082775      0.3340000000      13.1383534542      1.1986486340      0.0000000000
1.1284461617         2126.1019775023      0.3360000000      13.1367486074      1.2110394168      0.0000000000
1.1390983967         2018.1961569251      0.3380000000      13.1351524928      1.2234199734      0.0000000000
1.1497228522         1916.6256689853      0.3400000000      13.1335604527      1.2357883639      0.0000000000
1.1603179371         1820.9773081857      0.3420000000      13.1319679989      1.2481426774      0.0000000000
1.1708820950         1730.8674819206      0.3440000000      13.1303708838      1.2604810314      0.0000000000
1.1814138051         1645.9392034463      0.3460000000      13.1287650550      1.2728015742      0.0000000000
1.1919115832         1565.8608100621      0.3480000000      13.1271466872      1.2851024856      0.0000000000
1.2023739784         1490.3235531044      0.3500000000      13.1255121207      1.2973819731      0.0000000000
1.2127995786         1419.0401401623      0.3520000000      13.1238578891      1.3096382794      0.0000000000
1.2231870078         1351.7428780370      0.3540000000      13.1221807251      1.3218696788      0.0000000000
1.2335349257         1288.1827332093      0.3560000000      13.1204774981      1.3340744776      0.0000000000
1.2438420293         1228.1274618778      0.3580000000      13.1187452755      1.3462510157      0.0000000000
1.2541070519         1171.3605442126      0.3600000000      13.1169812761      1.3583976663      0.0000000000
1.2643287639         1117.6801998224      0.3620000000      13.1151828756      1.3705128367      0.0000000000
1.2745059719         1066.8980569366      0.3640000000      13.1133476101      1.3825949679      0.0000000000
1.2846375194         1018.8383984293      0.3660000000      13.1114731383      1.3946425355      0.0000000000
1.2947222863          973.3371237910      0.3680000000      13.1095572907      1.4066540495      0.0000000000
1.3047591888          930.2409594071      0.3700000000      13.1075980190      1.4186280545      0.0000000000
1.3147471792          889.4067309899      0.3720000000      13.1055933958      1.4305631301      0.0000000000
1.3246852456          850.7005889066      0.3740000000      13.1035416119      1.4424578901      0.0000000000
1.3345724121          813.9973871694      0.3760000000      13.1014410181      1.4543109839      0.0000000000
1.3444077381          779.1800511472      0.3780000000      13.0992900641      1.4661210954      0.0000000000
1.3541903180          746.1390195039      0.3800000000      13.0970872553      1.4778869432      0.0000000000
1.3639192809          714.7717823109      0.3820000000      13.0948313042      1.4896072810      0.0000000000
1.3735937907          684.9822839231      0.3840000000      13.0925209432      1.5012808967      0.0000000000
1.3832130453          656.6805280462      0.3860000000      13.0901550697      1.5129066135      0.0000000000
1.3927762759          629.7822518277      0.3880000000      13.0877326161      1.5244832882      0.0000000000
1.4022827473          604.2083965115      0.3900000000      13.0852526397      1.5360098121      0.0000000000
1.4117317572          579.8848116064      0.3920000000      13.0827142971      1.5474851108      0.0000000000
1.4211226355          556.7419569851      0.3940000000      13.0801167863      1.5589081432      0.0000000000
1.4304547442          534.7145667497      0.3960000000      13.0774594285      1.5702779022      0.0000000000
1.4397274767          513.7413758452      0.3980000000      13.0747416029      1.5815934136      0.0000000000
1.4489402573          493.7648026805      0.4000000000      13.0719627553      1.5928537364      0.0000000000
1.4580925411          474.7307559333      0.4020000000      13.0691224242      1.6040579622      0.0000000000
1.4671838128          456.5884392892      0.4040000000      13.0662202011      1.6152052150      0.0000000000
1.4762135867          439.2900567783      0.4060000000      13.0632557526      1.6262946507      0.0000000000
1.4851814061          422.7906391271      0.4080000000      13.0602287797      1.6373254570      0.0000000000
1.4940868426          407.0479231514      0.4100000000      13.0571390821      1.6482968526      0.0000000000
1.5029294957          392.0220860376      0.4120000000      13.0539864962      1.6592080875      0.0000000000
1.5117089922          377.6756599477      0.4140000000      13.0507709099      1.6700584418      0.0000000000
1.5204249857          363.9733529346      0.4160000000      13.0474922702      1.6808472258      0.0000000000
1.5290771560          350.8819073365      0.4180000000      13.0441505609      1.6915737795      0.0000000000
1.5376652084          338.3699700738      0.4200000000      13.0407458280      1.7022374721      0.0000000000
1.5461888734          326.4080100376      0.4220000000      13.0372781555      1.7128377015      0.0000000000
1.5546479063          314.9681151331      0.4240000000      13.0337476704      1.7233738944      0.0000000000
1.5630420858          304.0240289984      0.4260000000      13.0301545391      1.7338455046      0.0000000000
1.5713712145          293.5509238790      0.4280000000      13.0264989597      1.7442520139      0.0000000000
1.5796351176          283.5253619961      0.4300000000      13.0227811822      1.7545929309      0.0000000000
1.5878336427          273.9252330437      0.4320000000      13.0190014799      1.7648677907      0.0000000000
1.5959666592          264.7296098440      0.4340000000      13.0151601517      1.7750761543      0.0000000000
1.6040340575          255.9187600150      0.4360000000      13.0112575533      1.7852176086      0.0000000000
1.6120357486          247.4740097273      0.4380000000      13.0072940290      1.7952917649      0.0000000000
1.6199716641          239.3776814027      0.4400000000      13.0032699994      1.8052982599      0.0000000000
1.6278417544          231.6130977913      0.4420000000      12.9991858690      1.8152367538      0.0000000000
1.6356459896          224.1644428528      0.4440000000      12.9950420849      1.8251069305      0.0000000000
1.6433843578          217.0167564907      0.4460000000      12.9908391216      1.8349084972      0.0000000000
1.6510568653          210.1558738599      0.4480000000      12.9865774660      1.8446411838      0.0000000000
1.6586635357          203.5683843625      0.4500000000      12.9822576315      1.8543047421      0.0000000000
1.6662044098          197.2415758225      0.4520000000      12.9778801356      1.8638989457      0.0000000000
1.6736795444          191.1634054383      0.4540000000      12.9734455385      1.8734235895      0.0000000000
1.6810890124          185.3224602631      0.4560000000      12.9689544014      1.8828784888      0.0000000000
1.6884329023          179.7079020603      0.4580000000      12.9644072970      1.8922634797      0.0000000000
1.6957113172          174.3094704431      0.4600000000      12.9598048165      1.9015784174      0.0000000000
1.7029243748          169.1174157049      0.4620000000      12.9551475786      1.9108231769      0.0000000000
