# M(M_sol)                 Lambda          n_Bc(fm^-3)         R(km)            m_B(M_sol)        m_Bquar/M_B
0.1518676699     50416570.3269880041      0.0850000000      24.2119560850      0.1521198861      0.0000000000
0.1587899039     40964333.5704579502      0.0870000000      23.1172549384      0.1591417684      0.0000000000
0.1658091381     33618012.6939737871      0.0890000000      22.2001874125      0.1662688322      0.0000000000
0.1729181713     27822718.0254919194      0.0910000000      21.4223109133      0.1734939540      0.0000000000
0.1801109838     23195403.6541842520      0.0930000000      20.7553878937      0.1808111962      0.0000000000
0.1873825178     19463029.8382128999      0.0950000000      20.1782285189      0.1882155868      0.0000000000
0.1947285250     16426112.1459908355      0.0970000000      19.6746349520      0.1957029678      0.0000000000
0.2021454468     13936029.6419684906      0.0990000000      19.2320212754      0.2032698757      0.0000000000
0.2096303188     11880275.7322651129      0.1010000000      18.8404672470      0.2109134466      0.0000000000
0.2171806963     10172556.0834567603      0.1030000000      18.4920541027      0.2186313419      0.0000000000
0.2247945933      8745910.2179899048      0.1050000000      18.1803873160      0.2264216878      0.0000000000
0.2324704300      7547871.1764737554      0.1070000000      17.9002509615      0.2342830237      0.0000000000
0.2402069859      6536961.9418185120      0.1090000000      17.6473503581      0.2422142557      0.0000000000
0.2480033633      5680138.2143428018      0.1110000000      17.4181197789      0.2502146202      0.0000000000
0.2558380491      4952662.6497817710      0.1130000000      17.2101023824      0.2582621679      0.0000000000
0.2635510442      4343894.5662182961      0.1150000000      17.0242825189      0.2661924111      0.0000000000
0.2712134796      3826378.5200572871      0.1170000000      16.8559120226      0.2740782163      0.0000000000
0.2788555307      3382425.4603810781      0.1190000000      16.7021180410      0.2819505248      0.0000000000
0.2864909906      2999225.5282411594      0.1210000000      16.5608836530      0.2898234991      0.0000000000
0.2941288159      2666801.7038273169      0.1230000000      16.4306197785      0.2977063627      0.0000000000
0.3017757897      2377172.9306145408      0.1250000000      16.3100251734      0.3056061299      0.0000000000
0.3094375155      2123856.0444229175      0.1270000000      16.1980118880      0.3135286222      0.0000000000
0.3171188808      1901526.3320345415      0.1290000000      16.0936583286      0.3214789433      0.0000000000
0.3248243040      1705773.2157807813      0.1310000000      15.9961762234      0.3294617312      0.0000000000
0.3325578713      1532916.7976952551      0.1330000000      15.9048862557      0.3374812981      0.0000000000
0.3403234165      1379868.0859216419      0.1350000000      15.8191987138      0.3455417117      0.0000000000
0.3481245808      1244019.6122805714      0.1370000000      15.7385998435      0.3536468560      0.0000000000
0.3559648405      1123159.3310288417      0.1390000000      15.6626390680      0.3618004599      0.0000000000
0.3638475370      1015401.7738212791      0.1410000000      15.5909196206      0.3700061271      0.0000000000
0.3717758836       919133.8593146297      0.1430000000      15.5230913405      0.3782673429      0.0000000000
0.3797529816       832968.9692523939      0.1450000000      15.4588432131      0.3865874909      0.0000000000
0.3877818245       755711.8897505599      0.1470000000      15.3978988294      0.3949698567      0.0000000000
0.3958653011       686328.0566258639      0.1490000000      15.3400112459      0.4034176306      0.0000000000
0.4040062011       623919.2983081837      0.1510000000      15.2849592667      0.4119339136      0.0000000000
0.4122072125       567703.7284548342      0.1530000000      15.2325445884      0.4205217141      0.0000000000
0.4204709253       516998.2962512146      0.1550000000      15.1825884409      0.4291839516      0.0000000000
0.4287998288       471204.8804392015      0.1570000000      15.1349295566      0.4379234539      0.0000000000
0.4371963109       429798.3931076904      0.1590000000      15.0894219256      0.4467429553      0.0000000000
0.4456626657       392316.5973560719      0.1610000000      15.0459331601      0.4556451051      0.0000000000
0.4542010608       358351.8034651797      0.1630000000      15.0043428519      0.4646324324      0.0000000000
0.4628135813       327543.4477308968      0.1650000000      14.9645412900      0.4737073924      0.0000000000
0.4715021974       299572.0900412569      0.1670000000      14.9264282432      0.4828723317      0.0000000000
0.4802687702       274154.1171217947      0.1690000000      14.8899118669      0.4921294945      0.0000000000
0.4891150508       251037.1921980362      0.1710000000      14.8549078933      0.5014810209      0.0000000000
0.4980426766       229996.5486288918      0.1730000000      14.8213388938      0.5109289424      0.0000000000
0.5070531704       210831.4640889229      0.1750000000      14.7891333099      0.5204751812      0.0000000000
0.5161479408       193362.4796301797      0.1770000000      14.7582252800      0.5301215500      0.0000000000
0.5253282757       177428.8754729641      0.1790000000      14.7285534435      0.5398697440      0.0000000000
0.5345953456       162886.5206007742      0.1810000000      14.7000612082      0.5497213447      0.0000000000
0.5439501977       149605.9561549111      0.1830000000      14.6726955818      0.5596778130      0.0000000000
0.5533937738       137470.7415107770      0.1850000000      14.6464072591      0.5697405073      0.0000000000
0.5629268450       126376.0816533854      0.1870000000      14.6211502392      0.5799106138      0.0000000000
0.5725501042       116227.4405476778      0.1890000000      14.5968812343      0.5901892443      0.0000000000
0.5822641031       106939.5135892064      0.1910000000      14.5735596734      0.6005773683      0.0000000000
0.5920692670        98435.2314829264      0.1930000000      14.5511472839      0.6110758282      0.0000000000
0.6019658950        90644.8796852378      0.1950000000      14.5296080013      0.6216853394      0.0000000000
0.6119541577        83505.3549710428      0.1970000000      14.5089076253      0.6324064860      0.0000000000
0.6220341002        76959.4684060369      0.1990000000      14.4890137661      0.6432397242      0.0000000000
0.6322056383        70955.3693703437      0.2010000000      14.4698955852      0.6541853771      0.0000000000
0.6424685632        65445.9789950317      0.2030000000      14.4515237790      0.6652436392      0.0000000000
0.6528225384        60388.5495274800      0.2050000000      14.4338703047      0.6764145716      0.0000000000
0.6632671024        55744.2155004726      0.2070000000      14.4169083415      0.6876981051      0.0000000000
0.6738016679        51477.6320338348      0.2090000000      14.4006121420      0.6990940374      0.0000000000
0.6844255265        47556.6258537380      0.2110000000      14.3849570757      0.7106020380      0.0000000000
0.6951378459        43951.8907221552      0.2130000000      14.3699193085      0.7222216443      0.0000000000
0.7059376746        40636.7322580919      0.2150000000      14.3554759901      0.7339522652      0.0000000000
0.7168239418        37586.8073969196      0.2170000000      14.3416049906      0.7457931804      0.0000000000
0.7277954494        34779.9058334816      0.2190000000      14.3282848861      0.7577435311      0.0000000000
0.7388509203        32195.7635451082      0.2210000000      14.3154950524      0.7698023707      0.0000000000
0.7499889300        29815.8729362512      0.2230000000      14.3032152935      0.7819685905      0.0000000000
0.7612079579        27623.3348186315      0.2250000000      14.2914262426      0.7942409735      0.0000000000
0.7725063765        25602.7021014834      0.2270000000      14.2801089480      0.8066181824      0.0000000000
0.7838824552        23739.8513491667      0.2290000000      14.2692449559      0.8190987625      0.0000000000
0.7953343649        22021.8689542701      0.2310000000      14.2588164247      0.8316811459      0.0000000000
0.8068601789        20436.9391585278      0.2330000000      14.2488058883      0.8443636510      0.0000000000
0.8184578783        18974.2480227789      0.2350000000      14.2391963549      0.8571444884      0.0000000000
0.8301253550        17623.8953093769      0.2370000000      14.2299712628      0.8700217623      0.0000000000
0.8418604161        16376.8146531690      0.2390000000      14.2211145061      0.8829934748      0.0000000000
0.8536607865        15224.6984828674      0.2410000000      14.2126102578      0.8960575283      0.0000000000
0.8655241141        14159.9378058036      0.2430000000      14.2044431729      0.9092117290      0.0000000000
0.8774479745        13175.5544327408      0.2450000000      14.1965982899      0.9224537929      0.0000000000
0.8894298737        12265.1508644777      0.2470000000      14.1890609437      0.9357813462      0.0000000000
0.9014672528        11422.8601532682      0.2490000000      14.1818168548      0.9491919312      0.0000000000
0.9135574937        10643.2990310862      0.2510000000      14.1748521055      0.9626830106      0.0000000000
0.9256979217         9921.5275801811      0.2530000000      14.1681531175      0.9762519705      0.0000000000
0.9378858113         9253.0109043945      0.2550000000      14.1617065981      0.9898961252      0.0000000000
0.9501183897         8633.5855925845      0.2570000000      14.1554996226      1.0036127211      0.0000000000
0.9623928418         8059.4279889715      0.2590000000      14.1495196170      1.0173989414      0.0000000000
0.9747063151         7527.0246285201      0.2610000000      14.1437542998      1.0312519103      0.0000000000
0.9870559233         7033.1474781093      0.2630000000      14.1381917129      1.0451686974      0.0000000000
0.9994387510         6574.8292025778      0.2650000000      14.1328202023      1.0591463219      0.0000000000
1.0118518585         6149.3417146266      0.2670000000      14.1276284439      1.0731817570      0.0000000000
1.0242922860         5754.1759632022      0.2690000000      14.1226054280      1.0872719347      0.0000000000
1.0367570579         5387.0238949123      0.2710000000      14.1177404208      1.1014137502      0.0000000000
1.0492431864         5045.7614371805      0.2730000000      14.1130230286      1.1156040651      0.0000000000
1.0617476768         4728.4341601785      0.2750000000      14.1084431513      1.1298397131      0.0000000000
1.0742675310         4433.2421094181      0.2770000000      14.1039909385      1.1441175041      0.0000000000
1.0867997517         4158.5279798833      0.2790000000      14.0996569578      1.1584342281      0.0000000000
1.0993413459         3902.7650725263      0.2810000000      14.0954319216      1.1727866589      0.0000000000
1.1118893295         3664.5463365420      0.2830000000      14.0913069630      1.1871715596      0.0000000000
1.1244407294         3442.5751596619      0.2850000000      14.0872733639      1.2015856847      0.0000000000
1.1369925894         3235.6560197080      0.2870000000      14.0833228578      1.2160257861      0.0000000000
1.1495419719         3042.6863467302      0.2890000000      14.0794473453      1.2304886155      0.0000000000
1.1620859616         2862.6489456915      0.2910000000      14.0756390364      1.2449709291      0.0000000000
1.1746216689         2694.6052516924      0.2930000000      14.0718903937      1.2594694900      0.0000000000
1.1871462333         2537.6886865897      0.2950000000      14.0681942345      1.2739810739      0.0000000000
1.1996568253         2391.0993309945      0.2970000000      14.0645434985      1.2885024697      0.0000000000
1.2121506504         2254.0981556558      0.2990000000      14.0609315410      1.3030304856      0.0000000000
1.2246249505         2126.0025591112      0.3010000000      14.0573518663      1.3175619503      0.0000000000
1.2370770081         2006.1814003816      0.3030000000      14.0537983327      1.3320937177      0.0000000000
1.2495041465         1894.0512322975      0.3050000000      14.0502649303      1.3466226682      0.0000000000
1.2619037336         1789.0726953252      0.3070000000      14.0467459906      1.3611457123      0.0000000000
1.2742731837         1690.7465766130      0.3090000000      14.0432360584      1.3756597943      0.0000000000
1.2866099590         1598.6109587009      0.3110000000      14.0397298976      1.3901618933      0.0000000000
1.2989115717         1512.2382908614      0.3130000000      14.0362225338      1.4046490261      0.0000000000
1.3111755856         1431.2324992824      0.3150000000      14.0327092130      1.4191182503      0.0000000000
1.3233996176         1355.2268004645      0.3170000000      14.0291854028      1.4335666655      0.0000000000
1.3355813389         1283.8812932124      0.3190000000      14.0256467559      1.4479914157      0.0000000000
1.3477184764         1216.8808399315      0.3210000000      14.0220891895      1.4623896913      0.0000000000
1.3598088139         1153.9332787921      0.3230000000      14.0185087994      1.4767587308      0.0000000000
1.3718501930         1094.7674488186      0.3250000000      14.0149018769      1.4910958225      0.0000000000
1.3838405139         1039.1319583477      0.3270000000      14.0112649365      1.5053983064      0.0000000000
1.3957777356          986.7932166399      0.3290000000      14.0075946722      1.5196635741      0.0000000000
1.4076598777          937.5344614517      0.3310000000      14.0038879639      1.5338890722      0.0000000000
1.4194850198          891.1542245324      0.3330000000      14.0001418447      1.5480723019      0.0000000000
1.4312513028          847.4653685004      0.3350000000      13.9963535918      1.5622108211      0.0000000000
1.4429569281          806.2938977487      0.3370000000      13.9925205878      1.5763022441      0.0000000000
1.4546001586          767.4780019236      0.3390000000      13.9886403926      1.5903442435      0.0000000000
1.4661793187          730.8671481612      0.3410000000      13.9847107714      1.6043345507      0.0000000000
1.4776927936          696.3212815954      0.3430000000      13.9807296019      1.6182709557      0.0000000000
1.4891390302          663.7099519649      0.3450000000      13.9766949144      1.6321513087      0.0000000000
1.5005165360          632.9117309131      0.3470000000      13.9726049029      1.6459735197      0.0000000000
1.5118238792          603.8134891672      0.3490000000      13.9684578934      1.6597355590      0.0000000000
1.5230596885          576.3097367058      0.3510000000      13.9642523448      1.6734354577      0.0000000000
1.5342226525          550.3021898500      0.3530000000      13.9599868404      1.6870713075      0.0000000000
1.5453115187          525.6991592403      0.3550000000      13.9556600971      1.7006412604      0.0000000000
1.5563250942          502.4150535505      0.3570000000      13.9512709745      1.7141435298      0.0000000000
1.5672622436          480.3700519894      0.3590000000      13.9468184092      1.7275763890      0.0000000000
1.5781218894          459.4895924192      0.3610000000      13.9423014734      1.7409381719      0.0000000000
1.5889030107          439.7040395290      0.3630000000      13.9377193453      1.7542272721      0.0000000000
1.5996046423          420.9483132964      0.3650000000      13.9330712802      1.7674421432      0.0000000000
1.6102258748          403.1615976942      0.3670000000      13.9283566815      1.7805812980      0.0000000000
1.6207658524          386.2870092690      0.3690000000      13.9235750134      1.7936433082      0.0000000000
1.6312237731          370.2713490665      0.3710000000      13.9187258414      1.8066268036      0.0000000000
1.6415988870          355.0648347918      0.3730000000      13.9138088082      1.8195304718      0.0000000000
1.6518904958          340.6208554855      0.3750000000      13.9088236367      1.8323530574      0.0000000000
1.6620979515          326.8957694277      0.3770000000      13.9037701542      1.8450933616      0.0000000000
1.6722206557          313.8486880198      0.3790000000      13.8986482475      1.8577502413      0.0000000000
1.6822580583          301.4412928951      0.3810000000      13.8934578658      1.8703226083      0.0000000000
1.6922096564          289.6376660902      0.3830000000      13.8881990446      1.8828094286      0.0000000000
1.7020749932          278.4041250787      0.3850000000      13.8828718663      1.8952097215      0.0000000000
1.7118536574          267.7090369524      0.3870000000      13.8774764977      1.9075225591      0.0000000000
1.7215452815          257.5227624426      0.3890000000      13.8720131475      1.9197470650      0.0000000000
1.7311495406          247.8174487993      0.3910000000      13.8664820745      1.9318824130      0.0000000000
1.7406661519          238.5669312546      0.3930000000      13.8608836007      1.9439278275      0.0000000000
1.7500948734          229.7466361878      0.3950000000      13.8552180987      1.9558825815      0.0000000000
1.7594355024          221.3334699530      0.3970000000      13.8494859913      1.9677459960      0.0000000000
1.7686878745          213.3057126854      0.3990000000      13.8436877372      1.9795174388      0.0000000000
1.7778518631          205.6429394036      0.4010000000      13.8378238250      1.9911963237      0.0000000000
1.7869273774          198.3259211442      0.4030000000      13.8318948279      2.0027821100      0.0000000000
1.7959143617          191.3365819156      0.4050000000      13.8259012978      2.0142743001      0.0000000000
1.8048127943          184.6578821953      0.4070000000      13.8198438511      2.0256724398      0.0000000000
1.8136226866          178.2737840897      0.4090000000      13.8137231432      2.0369761172      0.0000000000
1.8223440815          172.1691634930      0.4110000000      13.8075398354      2.0481849607      0.0000000000
1.8309770528          166.3297846705      0.4130000000      13.8012946401      2.0592986391      0.0000000000
1.8395217040          160.7422029418      0.4150000000      13.7949882825      2.0703168599      0.0000000000
1.8479781673          155.3937565489      0.4170000000      13.7886215121      2.0812393687      0.0000000000
1.8563466021          150.2724892950      0.4190000000      13.7821951030      2.0920659476      0.0000000000
1.8646271950          145.3671156157      0.4210000000      13.7757098569      2.1027964150      0.0000000000
1.8728201576          140.6669815027      0.4230000000      13.7691665771      2.1134306239      0.0000000000
1.8809257265          136.1620280272      0.4250000000      13.7625661078      2.1239684615      0.0000000000
1.8889441618          131.8427424846      0.4270000000      13.7559092755      2.1344098474      0.0000000000
1.8968757461          127.7001487768      0.4290000000      13.7491969441      2.1447547335      0.0000000000
1.9047207843          123.7257460000      0.4310000000      13.7424300069      2.1550031029      0.0000000000
1.9124796013          119.9115005957      0.4330000000      13.7356093073      2.1651549678      0.0000000000
1.9201525433          116.2498124613      0.4350000000      13.7287357690      2.1752103711      0.0000000000
1.9277399734          112.7334884616      0.4370000000      13.7218102860      2.1851693813      0.0000000000
1.9352422748          109.3557175768      0.4390000000      13.7148337564      2.1950320961      0.0000000000
1.9426598475          106.1100540654      0.4410000000      13.7078071076      2.2047986392      0.0000000000
1.9499931079          102.9903885837      0.4430000000      13.7007312562      2.2144691591      0.0000000000
