# M(M_sol)                 Lambda          n_Bc(fm^-3)         R(km)            m_B(M_sol)        m_Bquar/M_B
0.1504860293     50885458.6939890981      0.0870000000      24.2644714864      0.1507198441      0.0000000000
0.1573627659     41147798.8597229943      0.0890000000      23.1337893479      0.1576936723      0.0000000000
0.1643799713     33585808.6523683369      0.0910000000      22.1843386003      0.1648166938      0.0000000000
0.1715282482     27632359.6670468636      0.0930000000      21.3779812737      0.1720796877      0.0000000000
0.1787991924     22893099.9472739585      0.0950000000      20.6864010321      0.1794744192      0.0000000000
0.1861852253     19085175.7192603946      0.0970000000      20.0881537107      0.1869934711      0.0000000000
0.1936794712     16000891.9484948292      0.0990000000      19.5667180405      0.1946301216      0.0000000000
0.2012756603     13484924.2917910200      0.1010000000      19.1091700586      0.2023782479      0.0000000000
0.2089680589     11419390.2984119374      0.1030000000      18.7052638084      0.2102322568      0.0000000000
0.2167514095      9713737.6883304920      0.1050000000      18.3467776263      0.2181870250      0.0000000000
0.2246208861      8297673.2874390818      0.1070000000      18.0270425407      0.2262378555      0.0000000000
0.2325720500      7116148.0503342440      0.1090000000      17.7405966573      0.2343804336      0.0000000000
0.2406008220      6125704.0748784589      0.1110000000      17.4829266840      0.2426108000      0.0000000000
0.2486809788      5293902.5818534568      0.1130000000      17.2508835040      0.2509022485      0.0000000000
0.2566471130      4604880.5087039648      0.1150000000      17.0450773165      0.2590849281      0.0000000000
0.2645692394      4024858.0505509912      0.1170000000      16.8599028372      0.2672304970      0.0000000000
0.2724748645      3532031.2852672762      0.1190000000      16.6919467287      0.2753671325      0.0000000000
0.2803751936      3110592.4986787550      0.1210000000      16.5387850882      0.2835063236      0.0000000000
0.2882766456      2748291.2311836090      0.1230000000      16.3985040681      0.2916546689      0.0000000000
0.2961835237      2435390.7310783477      0.1250000000      16.2695354545      0.2998166096      0.0000000000
0.3040990179      2164035.1851432710      0.1270000000      16.1505685819      0.3079954557      0.0000000000
0.3120256671      1927821.3158257948      0.1290000000      16.0404941176      0.3161938576      0.0000000000
0.3199656052      1721484.1310807588      0.1310000000      15.9383637060      0.3244140587      0.0000000000
0.3279206982      1540664.6825924583      0.1330000000      15.8433604364      0.3326580340      0.0000000000
0.3358926297      1381731.8484962636      0.1350000000      15.7547761407      0.3409275792      0.0000000000
0.3438829515      1241644.1505564097      0.1370000000      15.6719933175      0.3492243606      0.0000000000
0.3518931194      1117841.5458839159      0.1390000000      15.5944710104      0.3575499527      0.0000000000
0.3599245161      1008159.1394830561      0.1410000000      15.5217332135      0.3659058612      0.0000000000
0.3679784641       910758.6884638680      0.1430000000      15.4533591253      0.3742935363      0.0000000000
0.3760562379       824073.1754789596      0.1450000000      15.3889757818      0.3827143846      0.0000000000
0.3841590670       746761.7055431687      0.1470000000      15.3282509219      0.3911697727      0.0000000000
0.3922881466       677673.2208610573      0.1490000000      15.2708883119      0.3996610372      0.0000000000
0.4004446321       615816.2135346999      0.1510000000      15.2166223528      0.4081894800      0.0000000000
0.4086296478       560333.7931795864      0.1530000000      15.1652145722      0.4167563763      0.0000000000
0.4168442816       510483.7511735558      0.1550000000      15.1164502790      0.4253629692      0.0000000000
0.4250895884       465620.9676319137      0.1570000000      15.0701357106      0.4340104734      0.0000000000
0.4333665889       425183.4312318335      0.1590000000      15.0260953798      0.4427000733      0.0000000000
0.4416762755       388680.2459182310      0.1610000000      14.9841703538      0.4514329295      0.0000000000
0.4500195831       355681.6294372040      0.1630000000      14.9442159123      0.4602101476      0.0000000000
0.4583974291       325810.4573787547      0.1650000000      14.9061004754      0.4690328206      0.0000000000
0.4668106861       298734.9527351619      0.1670000000      14.8697037785      0.4779019995      0.0000000000
0.4752601860       274162.7741087592      0.1690000000      14.8349159246      0.4868186977      0.0000000000
0.4837467194       251835.7022257218      0.1710000000      14.8016362017      0.4957838902      0.0000000000
0.4922710336       231525.2438248628      0.1730000000      14.7697721272      0.5047985114      0.0000000000
0.5008338317       213028.8402939745      0.1750000000      14.7392387391      0.5138634538      0.0000000000
0.5094357713       196166.5767062437      0.1770000000      14.7099577554      0.5229795666      0.0000000000
0.5180774640       180778.3808132178      0.1790000000      14.6818569902      0.5321476548      0.0000000000
0.5267594713       166721.6143442319      0.1810000000      14.6548696168      0.5413684745      0.0000000000
0.5354823069       153868.9415415383      0.1830000000      14.6289338503      0.5506427357      0.0000000000
0.5442464496       142106.4944976059      0.1850000000      14.6039924281      0.5599711152      0.0000000000
0.5530522818       131332.4004387287      0.1870000000      14.5799922294      0.5693541913      0.0000000000
0.5619001780       121455.2448471772      0.1890000000      14.5568837221      0.5787925375      0.0000000000
0.5707904460       112392.9587482393      0.1910000000      14.5346209003      0.5882866597      0.0000000000
0.5797233395       104071.7664887295      0.1930000000      14.5131608089      0.5978370093      0.0000000000
0.5886990577        96425.2362080324      0.1950000000      14.4924632719      0.6074439830      0.0000000000
0.5977177460        89393.4933722597      0.1970000000      14.4724908058      0.6171079222      0.0000000000
0.6067794939        82922.4957637337      0.1990000000      14.4532082271      0.6268291116      0.0000000000
0.6158843362        76963.4171768338      0.2010000000      14.4345825900      0.6366077794      0.0000000000
0.6250322512        71472.0799904438      0.2030000000      14.4165828270      0.6464440955      0.0000000000
0.6342231622        66408.4877746883      0.2050000000      14.3991798768      0.6563381725      0.0000000000
0.6434569361        61736.3799601227      0.2070000000      14.3823462834      0.6662900640      0.0000000000
0.6527333848        57422.8437373227      0.2090000000      14.3660561070      0.6762997656      0.0000000000
0.6620522628        53437.9941654429      0.2110000000      14.3502849036      0.6863672124      0.0000000000
0.6714132713        49754.6478007252      0.2130000000      14.3350095610      0.6964922826      0.0000000000
0.6808160559        46348.0686897827      0.2150000000      14.3202081838      0.7066747950      0.0000000000
0.6902602061        43195.7313937808      0.2170000000      14.3058599783      0.7169145078      0.0000000000
0.6997452484        40277.0960194267      0.2190000000      14.2919452801      0.7272111108      0.0000000000
0.7092706870        37573.4125087497      0.2210000000      14.2784452631      0.7375642698      0.0000000000
0.7188359525        35067.5671710796      0.2230000000      14.2653421536      0.7479735695      0.0000000000
0.7284404016        32743.9257314794      0.2250000000      14.2526189881      0.7584385136      0.0000000000
0.7380833614        30588.1784708305      0.2270000000      14.2402594800      0.7689585721      0.0000000000
0.7477641290        28587.2307478139      0.2290000000      14.2282481938      0.7795331809      0.0000000000
0.7574819225        26729.0912559348      0.2310000000      14.2165703693      0.7901616879      0.0000000000
0.7672359205        25002.7691705209      0.2330000000      14.2052118191      0.8008433952      0.0000000000
0.7770252557        23398.1821956599      0.2350000000      14.1941589423      0.8115775530      0.0000000000
0.7868490148        21906.0792512374      0.2370000000      14.1833988091      0.8223633575      0.0000000000
0.7967062406        20517.9630327324      0.2390000000      14.1729189560      0.8331999540      0.0000000000
0.8065959311        19226.0273225285      0.2410000000      14.1627073249      0.8440864352      0.0000000000
0.8165170444        18023.0938361985      0.2430000000      14.1527524556      0.8550218461      0.0000000000
0.8264684969        16902.5592019630      0.2450000000      14.1430432400      0.8660051817      0.0000000000
0.8364491680        15858.3420448941      0.2470000000      14.1335690288      0.8770353919      0.0000000000
0.8464578978        14884.8472374938      0.2490000000      14.1243195265      0.8881113786      0.0000000000
0.8564934924        13976.9142961100      0.2510000000      14.1152848568      0.8992320013      0.0000000000
0.8665547229        13129.7882342592      0.2530000000      14.1064554273      0.9103960751      0.0000000000
0.8766403292        12339.0814381838      0.2550000000      14.0978220808      0.9216023755      0.0000000000
0.8867490196        11600.7436975326      0.2570000000      14.0893758360      0.9328496368      0.0000000000
0.8968794735        10911.0392290025      0.2590000000      14.0811081301      0.9441365555      0.0000000000
0.9070303437        10266.5140471245      0.2610000000      14.0730106641      0.9554617917      0.0000000000
0.9172002571         9663.9772659107      0.2630000000      14.0650753573      0.9668239703      0.0000000000
0.9273878174         9100.4782121762      0.2650000000      14.0572944875      0.9782216835      0.0000000000
0.9375916058         8573.2882325982      0.2670000000      14.0496605250      0.9896534915      0.0000000000
0.9478101842         8079.8813977565      0.2690000000      14.0421661303      1.0011179249      0.0000000000
0.9580420952         7617.9206360318      0.2710000000      14.0348043441      1.0126134859      0.0000000000
0.9682858662         7185.2400336870      0.2730000000      14.0275683412      1.0241386516      0.0000000000
0.9785400083         6779.8343727153      0.2750000000      14.0204514732      1.0356918727      0.0000000000
0.9888030212         6399.8439747843      0.2770000000      14.0134474478      1.0472715793      0.0000000000
0.9990733923         6043.5447148314      0.2790000000      14.0065499764      1.0588761792      0.0000000000
1.0093495998         5709.3379553093      0.2810000000      13.9997531318      1.0705040609      0.0000000000
1.0196301145         5395.7396304426      0.2830000000      13.9930511355      1.0821535967      0.0000000000
1.0299134005         5101.3724115076      0.2850000000      13.9864383293      1.0938231419      0.0000000000
1.0401979182         4824.9572305209      0.2870000000      13.9799093031      1.1055110387      0.0000000000
1.0504821253         4565.3057413946      0.2890000000      13.9734588418      1.1172156177      0.0000000000
1.0607644775         4321.3140507495      0.2910000000      13.9670818098      1.1289351974      0.0000000000
1.0710434321         4091.9557379007      0.2930000000      13.9607733321      1.1406680894      0.0000000000
1.0813174478         3876.2762827594      0.2950000000      13.9545286291      1.1524125972      0.0000000000
1.0915849870         3673.3877499768      0.2970000000      13.9483430875      1.1641670193      0.0000000000
1.1018445171         3482.4642407602      0.2990000000      13.9422122630      1.1759296501      0.0000000000
1.1120945125         3302.7363436995      0.3010000000      13.9361319070      1.1876987829      0.0000000000
1.1223334547         3133.4880885155      0.3030000000      13.9300978273      1.1994727092      0.0000000000
1.1325598351         2974.0523479490      0.3050000000      13.9241060408      1.2112497223      0.0000000000
1.1427721551         2823.8076907879      0.3070000000      13.9181526573      1.2230281174      0.0000000000
1.1529689282         2682.1746961254      0.3090000000      13.9122339380      1.2348061940      0.0000000000
1.1631486812         2548.6131738167      0.3110000000      13.9063463135      1.2465822571      0.0000000000
1.1733099548         2422.6193529538      0.3130000000      13.9004863239      1.2583546184      0.0000000000
1.1834513048         2303.7230917646      0.3150000000      13.8946505676      1.2701215973      0.0000000000
1.1935713040         2191.4858853932      0.3170000000      13.8888358788      1.2818815231      0.0000000000
1.2036685421         2085.4981003177      0.3190000000      13.8830391479      1.2936327356      0.0000000000
1.2137416275         1985.3773152342      0.3210000000      13.8772574019      1.3053735864      0.0000000000
1.2237891879         1890.7662562920      0.3230000000      13.8714877694      1.3171024404      0.0000000000
1.2338098714         1801.3311351670      0.3250000000      13.8657275123      1.3288176769      0.0000000000
1.2438023465         1716.7598392484      0.3270000000      13.8599739717      1.3405176895      0.0000000000
1.2537653039         1636.7606300252      0.3290000000      13.8542246457      1.3522008891      0.0000000000
1.2636974571         1561.0606517222      0.3310000000      13.8484770849      1.3638657037      0.0000000000
1.2735975425         1489.4045400848      0.3330000000      13.8427289876      1.3755105793      0.0000000000
1.2834643202         1421.5534492728      0.3350000000      13.8369781008      1.3871339811      0.0000000000
1.2932965753         1357.2836096264      0.3370000000      13.8312223407      1.3987343947      0.0000000000
1.3030931174         1296.3855521869      0.3390000000      13.8254596518      1.4103103263      0.0000000000
1.3128527816         1238.6631124147      0.3410000000      13.8196881164      1.4218603034      0.0000000000
1.3225744290         1183.9324571341      0.3430000000      13.8139058777      1.4333828759      0.0000000000
1.3322569471         1132.0212330875      0.3450000000      13.8081111851      1.4448766169      0.0000000000
1.3418992497         1082.7679603830      0.3470000000      13.8023023643      1.4563401228      0.0000000000
1.3515002782         1036.0210051497      0.3490000000      13.7964778455      1.4677720146      0.0000000000
1.3610590006          991.6383012339      0.3510000000      13.7906361134      1.4791709374      0.0000000000
1.3705744128          949.4864755304      0.3530000000      13.7847757605      1.4905355620      0.0000000000
1.3800455381          909.4402768621      0.3550000000      13.7788954098      1.5018645845      0.0000000000
1.3894714277          871.3822087119      0.3570000000      13.7729938148      1.5131567272      0.0000000000
1.3988511610          835.2018159001      0.3590000000      13.7670697777      1.5244107390      0.0000000000
1.4081838452          800.7953868113      0.3610000000      13.7611221800      1.5356253953      0.0000000000
1.4174686154          768.0653828017      0.3630000000      13.7551499297      1.5467994987      0.0000000000
1.4267046351          736.9202307392      0.3650000000      13.7491520677      1.5579318790      0.0000000000
1.4358910956          707.2737125793      0.3670000000      13.7431276516      1.5690213935      0.0000000000
1.4450272167          679.0447576641      0.3690000000      13.7370758343      1.5800669278      0.0000000000
1.4541122457          652.1571294286      0.3710000000      13.7309958117      1.5910673948      0.0000000000
1.4631454576          626.5390458091      0.3730000000      13.7248868236      1.6020217351      0.0000000000
1.4721261557          602.1229016608      0.3750000000      13.7187482129      1.6129289185      0.0000000000
1.4810536703          578.8451103915      0.3770000000      13.7125793412      1.6237879417      0.0000000000
1.4899273595          556.6456683928      0.3790000000      13.7063796082      1.6345978305      0.0000000000
1.4987466081          535.4681351273      0.3810000000      13.7001485215      1.6453576384      0.0000000000
1.5075108281          515.2592964539      0.3830000000      13.6938855883      1.6560664469      0.0000000000
1.5162194584          495.9689060098      0.3850000000      13.6875903873      1.6667233662      0.0000000000
1.5248719638          477.5496830993      0.3870000000      13.6812625458      1.6773275338      0.0000000000
1.5334678356          459.9569507194      0.3890000000      13.6749017217      1.6878781155      0.0000000000
1.5420065909          443.1485982832      0.3910000000      13.6685076197      1.6983743048      0.0000000000
1.5504877724          427.0848646944      0.3930000000      13.6620799994      1.7088153228      0.0000000000
1.5589109474          411.7281910242      0.3950000000      13.6556186480      1.7192004178      0.0000000000
1.5672757088          397.0431274925      0.3970000000      13.6491233984      1.7295288656      0.0000000000
1.5755816734          382.9961963385      0.3990000000      13.6425941139      1.7397999689      0.0000000000
1.5838284827          369.5557296106      0.4010000000      13.6360306995      1.7500130576      0.0000000000
1.5920158011          356.6918227988      0.4030000000      13.6294330741      1.7601674876      0.0000000000
1.6001433172          344.3761907162      0.4050000000      13.6228012212      1.7702626413      0.0000000000
1.6082107418          332.5820978920      0.4070000000      13.6161351466      1.7802979273      0.0000000000
1.6162178088          321.2842335028      0.4090000000      13.6094348837      1.7902727797      0.0000000000
1.6241642738          310.4586598157      0.4110000000      13.6027004702      1.8001866582      0.0000000000
1.6320499142          300.0827159927      0.4130000000      13.5959320147      1.8100390475      0.0000000000
1.6398745288          290.1349440537      0.4150000000      13.5891296254      1.8198294572      0.0000000000
1.6476379369          280.5950420723      0.4170000000      13.5822934288      1.8295574210      0.0000000000
1.6553399787          271.4437426437      0.4190000000      13.5754236052      1.8392224974      0.0000000000
1.6629805140          262.6628268745      0.4210000000      13.5685203300      1.8488242679      0.0000000000
1.6705594220          254.2350019714      0.4230000000      13.5615838115      1.8583623378      0.0000000000
1.6780766012          246.1438902142      0.4250000000      13.5546142857      1.8678363354      0.0000000000
1.6855319688          238.3739395469      0.4270000000      13.5476119899      1.8772459116      0.0000000000
1.6929254600          230.9104231471      0.4290000000      13.5405771940      1.8865907394      0.0000000000
1.7002570279          223.7393569315      0.4310000000      13.5335101936      1.8958705139      0.0000000000
1.7075266426          216.8474638213      0.4330000000      13.5264112648      1.9050849516      0.0000000000
1.7147342916          210.2221381930      0.4350000000      13.5192807493      1.9142337902      0.0000000000
1.7218799782          203.8514304597      0.4370000000      13.5121189689      1.9233167877      0.0000000000
1.7289637221          197.7239650961      0.4390000000      13.5049262635      1.9323337229      0.0000000000
1.7359855589          191.8289557527      0.4410000000      13.4977029944      1.9412843946      0.0000000000
1.7429455380          186.1561384793      0.4430000000      13.4904495457      1.9501686198      0.0000000000
1.7498437245          180.6957639050      0.4450000000      13.4831662868      1.9589862359      0.0000000000
