# M(M_sol)                 Lambda          n_Bc(fm^-3)         R(km)            m_B(M_sol)        m_Bquar/M_B
0.1512858338     26887108.2652614079      0.1340000000      20.6554621453      0.1514838310      0.0000000000
0.1549665076     23580645.5255173892      0.1360000000      20.1103364267      0.1552143829      0.0000000000
0.1587732345     20692446.4827540033      0.1380000000      19.6051978030      0.1590749467      0.0000000000
0.1627089581     18166795.9341180213      0.1400000000      19.1364083545      0.1630687309      0.0000000000
0.1667765779     15956239.5635139067      0.1420000000      18.7007643318      0.1671989130      0.0000000000
0.1709789102     14020116.7971036267      0.1440000000      18.2954298241      0.1714686005      0.0000000000
0.1753187231     12323410.0581480097      0.1460000000      17.9178855663      0.1758808666      0.0000000000
0.1797987367     10835838.5186340045      0.1480000000      17.5658854003      0.1804387506      0.0000000000
0.1844214878      9531120.9302587602      0.1500000000      17.2374106021      0.1851451211      0.0000000000
0.1891895398      8386422.9797336338      0.1520000000      16.9306561024      0.1900028889      0.0000000000
0.1941052444      7381828.3369549513      0.1540000000      16.6439847577      0.1950147653      0.0000000000
0.1991709573      6499962.4436706863      0.1560000000      16.3759221079      0.2001834811      0.0000000000
0.2043888873      5725645.2612918587      0.1580000000      16.1251292795      0.2055116339      0.0000000000
0.2097610965      5045595.7436073432      0.1600000000      15.8903851674      0.2110016874      0.0000000000
0.2152895797      4448195.4101817096      0.1620000000      15.6705798501      0.2166560531      0.0000000000
0.2209761666      3923266.5902804895      0.1640000000      15.4646951950      0.2224769897      0.0000000000
0.2268225689      3461899.3801416294      0.1660000000      15.2718001877      0.2284666515      0.0000000000
0.2328304031      3056283.6791582271      0.1680000000      15.0910395986      0.2346271114      0.0000000000
0.2390010834      2699576.5617854418      0.1700000000      14.9216242695      0.2409602513      0.0000000000
0.2453359416      2385782.0163319935      0.1720000000      14.7628292524      0.2474678840      0.0000000000
0.2518361211      2109644.3214691444      0.1740000000      14.6139837623      0.2541516449      0.0000000000
0.2585026409      1866556.1866623878      0.1760000000      14.4744666623      0.2610130568      0.0000000000
0.2653363881      1652480.2826782621      0.1780000000      14.3437043941      0.2680535217      0.0000000000
0.2723380440      1463875.9420444688      0.1800000000      14.2211605506      0.2752742447      0.0000000000
0.2795081815      1297640.6915847608      0.1820000000      14.1063399818      0.2826763332      0.0000000000
0.2868471850      1151054.0561547838      0.1840000000      13.9987793861      0.2902607141      0.0000000000
0.2943553206      1021731.7848782307      0.1860000000      13.8980498653      0.2980282054      0.0000000000
0.3020326489       907582.4022085428      0.1880000000      13.8037477314      0.3059794251      0.0000000000
0.3098791023       806772.7877533255      0.1900000000      13.7154983324      0.3141148707      0.0000000000
0.3178944146       717694.5772452654      0.1920000000      13.6329480785      0.3224348459      0.0000000000
0.3260782344       638938.2302856726      0.1940000000      13.5557719398      0.3309395757      0.0000000000
0.3344299478       569265.8644153479      0.1960000000      13.4836574236      0.3396290235      0.0000000000
0.3429488688       507592.3275315081      0.1980000000      13.4163179748      0.3485030861      0.0000000000
0.3516341061       452964.7667997562      0.2000000000      13.3534811248      0.3575614555      0.0000000000
0.3604846183       404546.7777680168      0.2020000000      13.2948913110      0.3668036745      0.0000000000
0.3694992101       361603.8684136439      0.2040000000      13.2403083105      0.3762291318      0.0000000000
0.3786765343       323491.0255121317      0.2060000000      13.1895063965      0.3858370631      0.0000000000
0.3880150918       289641.3798771170      0.2080000000      13.1422728167      0.3956265498      0.0000000000
0.3975132327       259556.6808903602      0.2100000000      13.0984070021      0.4055965189      0.0000000000
0.4071691576       232798.7504314471      0.2120000000      13.0577195798      0.4157457434      0.0000000000
0.4169809244       208982.1693247084      0.2140000000      13.0200319176      0.4260728478      0.0000000000
0.4269464492       187767.7171029871      0.2160000000      12.9851752646      0.4365763078      0.0000000000
0.4370635152       168856.7361296789      0.2180000000      12.9529904441      0.4472544591      0.0000000000
0.4473297713       151986.1323881870      0.2200000000      12.9233269376      0.4581054933      0.0000000000
0.4577427358       136924.0289272115      0.2220000000      12.8960422613      0.4691274618      0.0000000000
0.4682998016       123465.9533018413      0.2240000000      12.8710015219      0.4803182793      0.0000000000
0.4789982421       111431.5263653253      0.2260000000      12.8480771415      0.4916757287      0.0000000000
0.4898352211       100661.5176385154      0.2280000000      12.8271487494      0.5031974707      0.0000000000
0.5008077882        91015.2916478112      0.2300000000      12.8081020906      0.5148810370      0.0000000000
0.5119128790        82368.5398552278      0.2320000000      12.7908282517      0.5267238301      0.0000000000
0.5231473290        74611.3402052982      0.2340000000      12.7752239899      0.5387231361      0.0000000000
0.5345078974        67646.4751120567      0.2360000000      12.7611929755      0.5508761486      0.0000000000
0.5459912349        61387.8305261502      0.2380000000      12.7486423931      0.5631799343      0.0000000000
0.5575939115        55759.1271418932      0.2400000000      12.7374845246      0.5756314602      0.0000000000
0.5693124184        50692.7450211965      0.2420000000      12.7276361430      0.5882275950      0.0000000000
0.5811431811        46128.7082042684      0.2440000000      12.7190189422      0.6009651221      0.0000000000
0.5930825346        42013.7534630158      0.2460000000      12.7115567883      0.6138407121      0.0000000000
0.6051267867        38300.6078400502      0.2480000000      12.7051802647      0.6268509887      0.0000000000
0.6172721428        34947.2051847571      0.2500000000      12.6998197677      0.6399924482      0.0000000000
0.6295148103        31916.1809451250      0.2520000000      12.6954135848      0.6532615695      0.0000000000
0.6418508970        29174.2257877996      0.2540000000      12.6918986724      0.6666547050      0.0000000000
0.6542765096        26691.7092767794      0.2560000000      12.6892184256      0.6801681849      0.0000000000
0.6667877094        24442.2037049748      0.2580000000      12.6873181425      0.6937982692      0.0000000000
0.6793805061        22402.1288175053      0.2600000000      12.6861440656      0.7075411402      0.0000000000
0.6920509265        20550.4594495372      0.2620000000      12.6856486493      0.7213929754      0.0000000000
0.7047949463        18868.3947140308      0.2640000000      12.6857839006      0.7353498736      0.0000000000
0.7176085310        17339.1295413662      0.2660000000      12.6865045251      0.7494078989      0.0000000000
0.7304876563        15947.6446365044      0.2680000000      12.6877691938      0.7635631012      0.0000000000
0.7434282824        14680.4844789839      0.2700000000      12.6895375847      0.7778114889      0.0000000000
0.7564263587        13525.5908763306      0.2720000000      12.6917703509      0.7921490331      0.0000000000
0.7694778608        12472.1633889556      0.2740000000      12.6944319311      0.8065717072      0.0000000000
0.7825787762        11510.5108071153      0.2760000000      12.6974886495      0.8210754713      0.0000000000
0.7957250761        10631.9215894692      0.2780000000      12.7009058567      0.8356562414      0.0000000000
0.8089127974         9828.5836201213      0.2800000000      12.7046546796      0.8503099784      0.0000000000
0.8221379613         9093.4604540763      0.2820000000      12.7087043153      0.8650325987      0.0000000000
0.8353966334         8420.2246080872      0.2840000000      12.7130265825      0.8798200408      0.0000000000
0.8486849076         7803.1821582550      0.2860000000      12.7175959055      0.8946682461      0.0000000000
0.8619989199         7237.1991064588      0.2880000000      12.7223872995      0.9095731755      0.0000000000
0.8753348297         6717.6434703009      0.2900000000      12.7273761803      0.9245307882      0.0000000000
0.8886888530         6240.3392390689      0.2920000000      12.7325406367      0.9395370784      0.0000000000
0.9020572405         5801.5118571396      0.2940000000      12.7378589632      0.9545880515      0.0000000000
0.9154362983         5397.7525206893      0.2960000000      12.7433113269      0.9696797465      0.0000000000
0.9288223748         5025.9763004599      0.2980000000      12.7488782025      0.9848082228      0.0000000000
0.9422118808         4683.3928128894      0.3000000000      12.7545419688      0.9999695817      0.0000000000
0.9556012743         4367.4734054903      0.3020000000      12.7602851581      1.0151599505      0.0000000000
0.9689870820         4075.9277899855      0.3040000000      12.7660922972      1.0303755066      0.0000000000
0.9823658755         3806.6764578312      0.3060000000      12.7719473168      1.0456124510      0.0000000000
0.9957343041         3557.8341921154      0.3080000000      12.7778365258      1.0608670459      0.0000000000
1.0090890659         3327.6867234685      0.3100000000      12.7837455676      1.0761355826      0.0000000000
1.0224269425         3114.6777375828      0.3120000000      12.7896626070      1.0914144206      0.0000000000
1.0357447709         2917.3907848903      0.3140000000      12.7955754477      1.1066999571      0.0000000000
1.0490394535         2734.5360640699      0.3160000000      12.8014722681      1.1219886382      0.0000000000
1.0623079722         2564.9397307588      0.3180000000      12.8073428590      1.1372769758      0.0000000000
1.0755473738         2407.5314688328      0.3200000000      12.8131771666      1.1525615315      0.0000000000
1.0887547733         2261.3350178870      0.3220000000      12.8189657318      1.1678389209      0.0000000000
1.1019273711         2125.4594932641      0.3240000000      12.8246998556      1.1831058342      0.0000000000
1.1150624283         1999.0911300417      0.3260000000      12.8303713072      1.1983590078      0.0000000000
1.1281572839         1881.4863771458      0.3280000000      12.8359724591      1.2135952457      0.0000000000
1.1412093501         1771.9649535506      0.3300000000      12.8414960573      1.2288114141      0.0000000000
1.1542161120         1669.9044870943      0.3320000000      12.8469352734      1.2440044418      0.0000000000
1.1671751366         1574.7352724512      0.3340000000      12.8522844736      1.2591713313      0.0000000000
1.1800840584         1485.9347054570      0.3360000000      12.8575372909      1.2743091437      0.0000000000
1.1929405776         1403.0238306351      0.3380000000      12.8626882026      1.2894149959      0.0000000000
1.2057424878         1325.5635377938      0.3400000000      12.8677328163      1.3044860944      0.0000000000
1.2184876433         1253.1501351368      0.3420000000      12.8726660999      1.3195196979      0.0000000000
1.2311739803         1185.4132294128      0.3440000000      12.8774842594      1.3345131426      0.0000000000
1.2437995030         1122.0120230711      0.3460000000      12.8821833187      1.3494638268      0.0000000000
1.2563622848         1062.6329156952      0.3480000000      12.8867591973      1.3643692133      0.0000000000
1.2688604804         1006.9876294236      0.3500000000      12.8912091694      1.3792268440      0.0000000000
1.2812923127          954.8105221000      0.3520000000      12.8955303856      1.3940343249      0.0000000000
1.2936560677          905.8564840991      0.3540000000      12.8997194570      1.4087893223      0.0000000000
1.3059501164          859.9000966821      0.3560000000      12.9037749328      1.4234895872      0.0000000000
1.3181728850          816.7327707139      0.3580000000      12.9076939954      1.4381329231      0.0000000000
1.3303228743          776.1622734975      0.3600000000      12.9114748262      1.4527172082      0.0000000000
1.3423986567          738.0110779233      0.3620000000      12.9151162812      1.4672403927      0.0000000000
1.3543988611          702.1147795559      0.3640000000      12.9186162937      1.4817004825      0.0000000000
1.3663221876          668.3215644297      0.3660000000      12.9219736980      1.4960955567      0.0000000000
1.3781673993          636.4908652554      0.3680000000      12.9251873197      1.5104237585      0.0000000000
1.3899333284          606.4926900635      0.3700000000      12.9282568886      1.5246833031      0.0000000000
1.4016188576          578.2063129296      0.3720000000      12.9311809151      1.5388724572      0.0000000000
1.4132229418          551.5201045237      0.3740000000      12.9339594315      1.5529895643      0.0000000000
1.4247445898          526.3303842149      0.3760000000      12.9365918867      1.5670330242      0.0000000000
1.4361828670          502.5408957496      0.3780000000      12.9390776357      1.5810012966      0.0000000000
1.4475369052          480.0624683088      0.3800000000      12.9414172743      1.5948929137      0.0000000000
1.4588058829          458.8120615224      0.3820000000      12.9436103914      1.6087064575      0.0000000000
1.4699890370          438.7125492361      0.3840000000      12.9456570764      1.6224405732      0.0000000000
1.4810856629          419.6923005993      0.3860000000      12.9475581689      1.6360939717      0.0000000000
1.4920950956          401.6844268447      0.3880000000      12.9493129883      1.6496654060      0.0000000000
1.5030167372          384.6269560518      0.3900000000      12.9509229970      1.6631537058      0.0000000000
1.5138500283          368.4619468756      0.3920000000      12.9523882885      1.6765577428      0.0000000000
1.5245944640          353.1355029405      0.3940000000      12.9537097780      1.6898764514      0.0000000000
1.5352495824          338.5973092574      0.3960000000      12.9548879225      1.7031088145      0.0000000000
1.5458149719          324.8004867429      0.3980000000      12.9559238259      1.7162538736      0.0000000000
1.5562902609          311.7012103975      0.4000000000      12.9568179888      1.7293107163      0.0000000000
1.5666751274          299.2586385948      0.4020000000      12.9575717827      1.7422784883      0.0000000000
1.5769692860          287.4345417261      0.4040000000      12.9581859196      1.7551563790      0.0000000000
1.5871724959          276.1932319686      0.4060000000      12.9586615997      1.7679436305      0.0000000000
1.5972845570          265.5013306470      0.4080000000      12.9590001845      1.7806395340      0.0000000000
1.6073053047          255.3275898102      0.4100000000      12.9592026858      1.7932434235      0.0000000000
1.6172346127          245.6427497491      0.4120000000      12.9592702659      1.8057546804      0.0000000000
1.6270723915          236.4194305798      0.4140000000      12.9592042110      1.8181727309      0.0000000000
1.6368185886          227.6319968053      0.4160000000      12.9590060871      1.8304970472      0.0000000000
1.6464731813          219.2563637955      0.4180000000      12.9586769349      1.8427271395      0.0000000000
1.6560361842          211.2699992126      0.4200000000      12.9582184585      1.8548625647      0.0000000000
1.6655076399          203.6517298003      0.4220000000      12.9576318800      1.8669029158      0.0000000000
1.6748876227          196.3816759555      0.4240000000      12.9569185900      1.8788478266      0.0000000000
1.6841762371          189.4411997915      0.4260000000      12.9560801284      1.8906969705      0.0000000000
1.6933736172          182.8127868146      0.4280000000      12.9551181952      1.9024500592      0.0000000000
1.7024799206          176.4799469041      0.4300000000      12.9540340171      1.9141068367      0.0000000000
1.7114953358          170.4272066123      0.4320000000      12.9528294016      1.9256670874      0.0000000000
1.7204200729          164.6399871805      0.4340000000      12.9515057261      1.9371306260      0.0000000000
1.7292543676          159.1045722737      0.4360000000      12.9500645006      1.9484973018      0.0000000000
1.7379984796          153.8080623748      0.4380000000      12.9485073535      1.9597669974      0.0000000000
1.7466526910          148.7383021482      0.4400000000      12.9468359452      1.9709396271      0.0000000000
1.7552173055          143.8838369509      0.4420000000      12.9450519244      1.9820151352      0.0000000000
1.7636926462          139.2338626421      0.4440000000      12.9431567987      1.9929934948      0.0000000000
1.7720790553          134.7781865754      0.4460000000      12.9411519571      2.0038747067      0.0000000000
1.7803768972          130.5072168144      0.4480000000      12.9390393189      2.0146588033      0.0000000000
1.7885865521          126.4118881987      0.4500000000      12.9368204907      2.0253458416      0.0000000000
1.7967084171          122.4836324404      0.4520000000      12.9344970156      2.0359359040      0.0000000000
1.8047429042          118.7143557346      0.4540000000      12.9320701798      2.0464290962      0.0000000000
1.8126904464          115.0964411251      0.4560000000      12.9295421627      2.0568255549      0.0000000000
1.8205514837          111.6226379666      0.4580000000      12.9269138809      2.0671254305      0.0000000000
1.8283264791          108.2861517009      0.4600000000      12.9241876732      2.0773289073      0.0000000000
1.8360159015          105.0805031648      0.4620000000      12.9213646762      2.0874361819      0.0000000000
1.8436202358          101.9995836848      0.4640000000      12.9184465352      2.0974474760      0.0000000000
1.8511399781           99.0376066275      0.4660000000      12.9154348043      2.1073630310      0.0000000000
1.8585756377           96.1891027288      0.4680000000      12.9123313081      2.1171831097      0.0000000000
1.8659277308           93.4488673730      0.4700000000      12.9091372431      2.1269079892      0.0000000000
1.8731967872           90.8119916312      0.4720000000      12.9058543806      2.1365379691      0.0000000000
1.8803833439           88.2738078987      0.4740000000      12.9024841143      2.1460733633      0.0000000000
1.8874879489           85.8299003731      0.4760000000      12.8990281796      2.1555145052      0.0000000000
1.8945111563           83.4760693436      0.4780000000      12.8954879503      2.1648617416      0.0000000000
1.9014535290           81.2083348801      0.4800000000      12.8918649302      2.1741154355      0.0000000000
1.9083156371           79.0229195630      0.4820000000      12.8881606207      2.1832759649      0.0000000000
1.9150980571           76.9162335584      0.4840000000      12.8843764932      2.1923437215      0.0000000000
1.9218013739           74.8848777317      0.4860000000      12.8805143240      2.2013191128      0.0000000000
1.9284261722           72.9255955265      0.4880000000      12.8765749218      2.2102025522      0.0000000000
1.9349730497           71.0353236844      0.4900000000      12.8725603631      2.2189944748      0.0000000000
1.9414426028           69.2111263095      0.4920000000      12.8684716811      2.2276953198      0.0000000000
