# M(M_sol)                 Lambda          n_Bc(fm^-3)         R(km)            m_B(M_sol)        m_Bquar/M_B
0.1522734914     11094622.7263561320      0.1710000000      16.8447927719      0.1525256531      0.0000000000
0.1580300898      9164895.9831296746      0.1730000000      16.3306270896      0.1583706646      0.0000000000
0.1639923527      7600467.4012478301      0.1750000000      15.8754424314      0.1644304638      0.0000000000
0.1701557972      6327039.9358500866      0.1770000000      15.4712533358      0.1707010649      0.0000000000
0.1765160290      5286450.2047622101      0.1790000000      15.1113491483      0.1771785694      0.0000000000
0.1830687972      4432919.1217260854      0.1810000000      14.7900660547      0.1838592227      0.0000000000
0.1898100135      3730257.0343560609      0.1830000000      14.5026047542      0.1907394320      0.0000000000
0.1967356236      3149724.0254472229      0.1850000000      14.2448689355      0.1978156352      0.0000000000
0.2038416499      2668416.6984350425      0.1870000000      14.0133552083      0.2050843442      0.0000000000
0.2111242193      2268011.1670940216      0.1890000000      13.8050517383      0.2125421726      0.0000000000
0.2185794613      1933792.8919331280      0.1910000000      13.6173541885      0.2201857303      0.0000000000
0.2262035959      1653910.1341121641      0.1930000000      13.4480101483      0.2280117143      0.0000000000
0.2339928410      1418780.0889689170      0.1950000000      13.2950563430      0.2360168123      0.0000000000
0.2419434641      1220630.8010948389      0.1970000000      13.1567803882      0.2441977555      0.0000000000
0.2500517201      1053136.7254969715      0.1990000000      13.0316787532      0.2525512542      0.0000000000
0.2583139275       911135.4346723632      0.2010000000      12.9184340323      0.2610740756      0.0000000000
0.2667263547       790397.2786720841      0.2030000000      12.8158787032      0.2697629261      0.0000000000
0.2752853294       687448.8356669242      0.2050000000      12.7229844979      0.2786145637      0.0000000000
0.2839871720       599427.4189066890      0.2070000000      12.6388379678      0.2876257285      0.0000000000
0.2928281613       523966.0995840032      0.2090000000      12.5626221762      0.2967931070      0.0000000000
0.3018046509       459104.2009055468      0.2110000000      12.4936148743      0.3061134519      0.0000000000
0.3109129488       403210.7925001945      0.2130000000      12.4311658844      0.3155834567      0.0000000000
0.3201493712       354926.3333382918      0.2150000000      12.3746927991      0.3251998112      0.0000000000
0.3295102566       313114.4163393984      0.2170000000      12.3236740747      0.3349592159      0.0000000000
0.3389919018       276821.9278526852      0.2190000000      12.2776359850      0.3448583143      0.0000000000
0.3485906669       245248.3628349239      0.2210000000      12.2361562503      0.3548938024      0.0000000000
0.3583028695       217718.6769859703      0.2230000000      12.1988487763      0.3650623177      0.0000000000
0.3681248591       193662.7981312885      0.2250000000      12.1653660687      0.3753605168      0.0000000000
0.3780529796       172597.8011602084      0.2270000000      12.1353913752      0.3857850352      0.0000000000
0.3880835915       154113.7086482243      0.2290000000      12.1086372508      0.3963325110      0.0000000000
0.3982130636       137861.6598423050      0.2310000000      12.0848417241      0.4069995748      0.0000000000
0.4084377703       123544.0108041181      0.2330000000      12.0637649015      0.4177828477      0.0000000000
0.4187541278       110906.4660303556      0.2350000000      12.0451901387      0.4286789785      0.0000000000
0.4291585388        99730.9612714662      0.2370000000      12.0289162590      0.4396845851      0.0000000000
0.4396474397        89830.3737570800      0.2390000000      12.0147604683      0.4507963045      0.0000000000
0.4502172880        81043.6675139944      0.2410000000      12.0025548837      0.4620107786      0.0000000000
0.4608645480        73231.9335187613      0.2430000000      11.9921437605      0.4733246397      0.0000000000
0.4715857386        66275.2794883134      0.2450000000      11.9833865987      0.4847345604      0.0000000000
0.4823773821        60069.8331945025      0.2470000000      11.9761519021      0.4962371997      0.0000000000
0.4932360360        54525.5302771462      0.2490000000      11.9703190394      0.5078292358      0.0000000000
0.5041582900        49564.1070376448      0.2510000000      11.9657767337      0.5195073637      0.0000000000
0.5151407653        45117.4397988326      0.2530000000      11.9624223126      0.5312682943      0.0000000000
0.5261801142        41126.1074240412      0.2550000000      11.9601604976      0.5431087535      0.0000000000
0.5372730305        37538.2107616627      0.2570000000      11.9589036842      0.5550254933      0.0000000000
0.5484162286        34308.2960467986      0.2590000000      11.9585692026      0.5670152702      0.0000000000
0.5596064967        31396.5744241269      0.2610000000      11.9590830285      0.5790749017      0.0000000000
0.5708406082        28768.0528514502      0.2630000000      11.9603734433      0.5912011711      0.0000000000
0.5821154321        26392.0075048036      0.2650000000      11.9623769260      0.6033909466      0.0000000000
0.5934278556        24241.3464812007      0.2670000000      11.9650328987      0.6156410982      0.0000000000
0.6047747944        22292.1552558672      0.2690000000      11.9682837193      0.6279485086      0.0000000000
0.6161532435        20523.3448912203      0.2710000000      11.9720788998      0.6403101282      0.0000000000
0.6275602083        18916.2148294663      0.2730000000      11.9763682365      0.6527229012      0.0000000000
0.6389927708        17454.2271992122      0.2750000000      11.9811078013      0.6651838370      0.0000000000
0.6504480412        16122.6856092524      0.2770000000      11.9862548432      0.6776899583      0.0000000000
0.6619231874        14908.5401536334      0.2790000000      11.9917704809      0.6902383331      0.0000000000
0.6734154219        13800.1767683274      0.2810000000      11.9976181210      0.7028260608      0.0000000000
0.6849220031        12787.2421834454      0.2830000000      12.0037631714      0.7154502735      0.0000000000
0.6964402450        11860.5051108058      0.2850000000      12.0101740075      0.7281081477      0.0000000000
0.7079675142        11011.7200859034      0.2870000000      12.0168212596      0.7407969004      0.0000000000
0.7195012243        10233.5093789511      0.2890000000      12.0236772466      0.7535137840      0.0000000000
0.7310388388         9519.2644834734      0.2910000000      12.0307158596      0.7662560892      0.0000000000
0.7425778750         8863.0621414384      0.2930000000      12.0379130495      0.7790211498      0.0000000000
0.7541159041         8259.5861430883      0.2950000000      12.0452465782      0.7918063433      0.0000000000
0.7656505477         7704.0571729512      0.2970000000      12.0526954933      0.8046090873      0.0000000000
0.7771794759         7192.1735102912      0.2990000000      12.0602399416      0.8174268374      0.0000000000
0.7887004157         6720.0626525448      0.3010000000      12.0678618139      0.8302570976      0.0000000000
0.8002111473         6284.2327716202      0.3030000000      12.0755443662      0.8430974156      0.0000000000
0.8117094949         5881.5280319526      0.3050000000      12.0832711360      0.8559453737      0.0000000000
0.8231933444         5509.1004201678      0.3070000000      12.0910277904      0.8687986086      0.0000000000
0.8346606260         5164.3710883348      0.3090000000      12.0988001785      0.8816547924      0.0000000000
0.8461093282         4845.0065121126      0.3110000000      12.1065758126      0.8945116486      0.0000000000
0.8575374791         4548.8878166246      0.3130000000      12.1143418512      0.9073669312      0.0000000000
0.8689431729         4274.0967236265      0.3150000000      12.1220877959      0.9202184556      0.0000000000
0.8803245501         4018.8898812221      0.3170000000      12.1298035332      0.9330640762      0.0000000000
0.8916797932         3781.6797024470      0.3190000000      12.1374787724      0.9459016817      0.0000000000
0.9030071442         3561.0240633670      0.3210000000      12.1451048567      0.9587292162      0.0000000000
0.9143048891         3355.6080822947      0.3230000000      12.1526732373      0.9715446609      0.0000000000
0.9255713673         3164.2339626401      0.3250000000      12.1601763927      0.9843460459      0.0000000000
0.9368049635         2985.8076566814      0.3270000000      12.1676068760      0.9971314412      0.0000000000
0.9480041086         2819.3303847887      0.3290000000      12.1749579386      1.0098989581      0.0000000000
0.9591672912         2663.8905920214      0.3310000000      12.1822240444      1.0226467628      0.0000000000
0.9702930341         2518.6516400271      0.3330000000      12.1893988524      1.0353730497      0.0000000000
0.9813799123         2382.8490758948      0.3350000000      12.1964770977      1.0480760626      0.0000000000
0.9924265532         2255.7831824593      0.3370000000      12.2034546346      1.0607540954      0.0000000000
1.0034316150         2136.8098687404      0.3390000000      12.2103261013      1.0734054676      0.0000000000
1.0143938165         2025.3403750558      0.3410000000      12.2170882539      1.0860285586      0.0000000000
1.0253119040         1920.8315405138      0.3430000000      12.2237363976      1.0986217707      0.0000000000
1.0361846845         1822.7865122881      0.3450000000      12.2302680420      1.1111835669      0.0000000000
1.0470109952         1730.7462591897      0.3470000000      12.2366796439      1.1237124372      0.0000000000
1.0577897194         1644.2888998003      0.3490000000      12.2429683884      1.1362069159      0.0000000000
1.0685197843         1563.0259554729      0.3510000000      12.2491319915      1.1486655807      0.0000000000
1.0792001538         1486.5987303826      0.3530000000      12.2551680186      1.1610870441      0.0000000000
1.0898298297         1414.6760175216      0.3550000000      12.2610740053      1.1734699550      0.0000000000
1.1004078600         1346.9528006426      0.3570000000      12.2668484924      1.1858130094      0.0000000000
1.1109333290         1283.1469545734      0.3590000000      12.2724900264      1.1981149383      0.0000000000
1.1214053562         1222.9973153091      0.3610000000      12.2779969662      1.2103745078      0.0000000000
1.1318230980         1166.2623180192      0.3630000000      12.2833679029      1.2225905202      0.0000000000
1.1421857510         1112.7185387344      0.3650000000      12.2886020021      1.2347618196      0.0000000000
1.1524925469         1062.1589939421      0.3670000000      12.2936985400      1.2468872849      0.0000000000
1.1627427482         1014.3913793429      0.3690000000      12.2986564337      1.2589658260      0.0000000000
1.1729356575          969.2377875976      0.3710000000      12.3034754419      1.2709963947      0.0000000000
1.1830706031          926.5324581032      0.3730000000      12.3081545162      1.2829779680      0.0000000000
1.1931469565          886.1221767832      0.3750000000      12.3126939758      1.2949095692      0.0000000000
1.2031641154          847.8641818133      0.3770000000      12.3170935561      1.3067902484      0.0000000000
1.2131215078          811.6255064450      0.3790000000      12.3213529480      1.3186190867      0.0000000000
1.2230185940          777.2826137449      0.3810000000      12.3254721225      1.3303951997      0.0000000000
1.2328548677          744.7206897380      0.3830000000      12.3294515902      1.3421177393      0.0000000000
1.2426298447          713.8322403634      0.3850000000      12.3332910109      1.3537858793      0.0000000000
1.2523430780          684.5176852892      0.3870000000      12.3369912336      1.3653988352      0.0000000000
1.2619941420          656.6836593916      0.3890000000      12.3405523152      1.3769558444      0.0000000000
1.2715826412          630.2432444885      0.3910000000      12.3439747544      1.3884561774      0.0000000000
1.2811082086          605.1153898160      0.3930000000      12.3472593409      1.3998991363      0.0000000000
1.2905704982          581.2240428249      0.3950000000      12.3504063007      1.4112840456      0.0000000000
1.2999691955          558.4985128642      0.3970000000      12.3534166809      1.4226102652      0.0000000000
1.3093040058          536.8723768422      0.3990000000      12.3562909679      1.4338771768      0.0000000000
1.3185746610          516.2836301896      0.4010000000      12.3590299955      1.4450841923      0.0000000000
1.3277809170          496.6742540617      0.4030000000      12.3616347474      1.4562307503      0.0000000000
1.3369225500          477.9897628883      0.4050000000      12.3641058593      1.4673163127      0.0000000000
1.3459993614          460.1792405890      0.4070000000      12.3664444493      1.4783403702      0.0000000000
1.3550111730          443.1949024466      0.4090000000      12.3686514858      1.4893024370      0.0000000000
1.3639578270          426.9918623429      0.4110000000      12.3707278537      1.5002020509      0.0000000000
1.3728391870          411.5280723625      0.4130000000      12.3726746289      1.5110387749      0.0000000000
1.3816551373          396.7640508782      0.4150000000      12.3744929870      1.5218121960      0.0000000000
1.3904055803          382.6626804551      0.4170000000      12.3761839884      1.5325219229      0.0000000000
1.3990904376          369.1890627125      0.4190000000      12.3777487480      1.5431675872      0.0000000000
1.4077096490          356.3104087525      0.4210000000      12.3791883884      1.5537488422      0.0000000000
1.4162631728          343.9958761810      0.4230000000      12.3805041518      1.5642653636      0.0000000000
1.4247509838          332.2164512840      0.4250000000      12.3816972565      1.5747168476      0.0000000000
1.4331730730          320.9447648334      0.4270000000      12.3827687777      1.5851030096      0.0000000000
1.4415294494          310.1551033129      0.4290000000      12.3837201103      1.5954235879      0.0000000000
1.4498201361          299.8231951219      0.4310000000      12.3845524375      1.6056783380      0.0000000000
1.4580451722          289.9261743695      0.4330000000      12.3852670382      1.6158670357      0.0000000000
1.4662046113          280.4424685622      0.4350000000      12.3858651906      1.6259894751      0.0000000000
1.4742985212          271.3517264102      0.4370000000      12.3863481504      1.6360454685      0.0000000000
1.4823269838          262.6347357126      0.4390000000      12.3867172448      1.6460348464      0.0000000000
1.4902900943          254.2733627650      0.4410000000      12.3869737672      1.6559574565      0.0000000000
1.4981879606          246.2504663063      0.4430000000      12.3871190170      1.6658131630      0.0000000000
1.5060207036          238.5498640952      0.4450000000      12.3871543498      1.6756018476      0.0000000000
1.5137884558          231.1562362096      0.4470000000      12.3870810445      1.6853234072      0.0000000000
1.5214913611          224.0550925644      0.4490000000      12.3869003681      1.6949777543      0.0000000000
1.5291295758          217.2327513007      0.4510000000      12.3866137303      1.7045648179      0.0000000000
1.5367032663          210.6762490774      0.4530000000      12.3862224657      1.7140845411      0.0000000000
1.5442126088          204.3732918450      0.4550000000      12.3857277998      1.7235368808      0.0000000000
1.5516577908          198.3122452059      0.4570000000      12.3851310751      1.7329218092      0.0000000000
1.5590390095          192.4821194986      0.4590000000      12.3844337195      1.7422393124      0.0000000000
1.5663564706          186.8724501080      0.4610000000      12.3836369513      1.7514893889      0.0000000000
1.5736103900          181.4733487849      0.4630000000      12.3827422300      1.7606720515      0.0000000000
1.5808009901          176.2753910653      0.4650000000      12.3817506246      1.7697873231      0.0000000000
1.5879285039          171.2696820634      0.4670000000      12.3806635868      1.7788352417      0.0000000000
1.5949931719          166.4477588131      0.4690000000      12.3794824541      1.7878158565      0.0000000000
1.6019952401          161.8015584411      0.4710000000      12.3782082567      1.7967292258      0.0000000000
1.6089349667          157.3235096563      0.4730000000      12.3768427494      1.8055754253      0.0000000000
1.6158126125          153.0063187468      0.4750000000      12.3753869485      1.8143545357      0.0000000000
1.6226284455          148.8430835582      0.4770000000      12.3738420212      1.8230666493      0.0000000000
1.6293827420          144.8272628292      0.4790000000      12.3722093420      1.8317118708      0.0000000000
1.6360757855          140.9526547946      0.4810000000      12.3704904340      1.8402903162      0.0000000000
1.6427078606          137.2132733048      0.4830000000      12.3686861139      1.8488021053      0.0000000000
1.6492792624          133.6035070540      0.4850000000      12.3667978919      1.8572473731      0.0000000000
1.6557902895          130.1179765202      0.4870000000      12.3648269856      1.8656262616      0.0000000000
1.6622412454          126.7515676421      0.4890000000      12.3627746179      1.8739389215      0.0000000000
1.6686324374          123.4993789721      0.4910000000      12.3606417730      1.8821855104      0.0000000000
1.6749641811          120.3568027852      0.4930000000      12.3584300274      1.8903661990      0.0000000000
1.6812367928          117.3193924801      0.4950000000      12.3561403907      1.8984811612      0.0000000000
1.6874505953          114.3829325108      0.4970000000      12.3537741381      1.9065305818      0.0000000000
1.6936059134          111.5433890732      0.4990000000      12.3513323630      1.9145146502      0.0000000000
1.6997030769          108.7969204566      0.5010000000      12.3488162443      1.9224335652      0.0000000000
1.7057424202          106.1398830603      0.5030000000      12.3462271671      1.9302875338      0.0000000000
1.7117242775          103.5687408501      0.5050000000      12.3435659024      1.9380767648      0.0000000000
1.7176489894          101.0801733919      0.5070000000      12.3408338130      1.9458014784      0.0000000000
1.7235168972           98.6709712954      0.5090000000      12.3380318281      1.9534618978      0.0000000000
1.7293283477           96.3381113603      0.5110000000      12.3351613369      1.9610582560      0.0000000000
1.7350836882           94.0786694133      0.5130000000      12.3322233786      1.9685907891      0.0000000000
1.7407832689           91.8898658318      0.5150000000      12.3292190835      1.9760597395      0.0000000000
1.7464274407           89.7690181841      0.5170000000      12.3261493035      1.9834653532      0.0000000000
1.7520165592           87.7135972894      0.5190000000      12.3230153455      1.9908078845      0.0000000000
1.7575509798           85.7211545043      0.5210000000      12.3198181085      1.9980875903      0.0000000000
1.7630310612           83.7893712597      0.5230000000      12.3165588226      2.0053047346      0.0000000000
1.7684571618           81.9160010555      0.5250000000      12.3132383287      2.0124595829      0.0000000000
1.7738296435           80.0989225746      0.5270000000      12.3098578691      2.0195524084      0.0000000000
1.7791488681           78.3360814318      0.5290000000      12.3064183504      2.0265834865      0.0000000000
