# M(M_sol)                 Lambda          n_Bc(fm^-3)         R(km)            m_B(M_sol)        m_Bquar/M_B
0.1535936848     15905447.2897953261      0.1560000000      18.3003714721      0.1538205251      0.0000000000
0.1580396474     13673941.1437322851      0.1580000000      17.8132617164      0.1583307134      0.0000000000
0.1626189030     11780788.6070425492      0.1600000000      17.3702007442      0.1629795475      0.0000000000
0.1673289335     10171202.4252287671      0.1620000000      16.9664348738      0.1677647525      0.0000000000
0.1721672581      8799843.9163098950      0.1640000000      16.5978089982      0.1726840909      0.0000000000
0.1771313846      7629071.0260428376      0.1660000000      16.2606842568      0.1777353122      0.0000000000
0.1822189024      6627545.0172322877      0.1680000000      15.9518681653      0.1829162480      0.0000000000
0.1874273804      5769105.9815067984      0.1700000000      15.6685462540      0.1882247070      0.0000000000
0.1927544095      5031868.8989734007      0.1720000000      15.4082333805      0.1936585187      0.0000000000
0.1981976562      4397494.3862085445      0.1740000000      15.1687343238      0.1992155871      0.0000000000
0.2037547647      3850577.5179023203      0.1760000000      14.9480979561      0.2048937908      0.0000000000
0.2094234190      3378158.8201514124      0.1780000000      14.7445904859      0.2106910469      0.0000000000
0.2152013471      2969315.2548974431      0.1800000000      14.5566670575      0.2166053138      0.0000000000
0.2210862383      2614825.5215054615      0.1820000000      14.3829460946      0.2226345072      0.0000000000
0.2270758629      2306890.2336047529      0.1840000000      14.2221924299      0.2287766226      0.0000000000
0.2331680105      2038902.2317276394      0.1860000000      14.0732988606      0.2350296712      0.0000000000
0.2393604316      1805251.9201749843      0.1880000000      13.9352651939      0.2413916203      0.0000000000
0.2456509693      1601172.9869332260      0.1900000000      13.8071965511      0.2478605285      0.0000000000
0.2520374162      1422604.2155268714      0.1920000000      13.6882795283      0.2544343977      0.0000000000
0.2585176538      1266082.8583411288      0.1940000000      13.5777845169      0.2611113177      0.0000000000
0.2650895196      1128648.3705247492      0.1960000000      13.4750455453      0.2678893275      0.0000000000
0.2717509098      1007767.8062356821      0.1980000000      13.3794619952      0.2747665225      0.0000000000
0.2784997089       901268.1382837381      0.2000000000      13.2904853944      0.2817409809      0.0000000000
0.2853338155       807283.1015369076      0.2020000000      13.2076161698      0.2888107906      0.0000000000
0.2922511819       724207.4655687882      0.2040000000      13.1304018968      0.2959740897      0.0000000000
0.2992497343       650657.2556502996      0.2060000000      13.0584260732      0.3032289841      0.0000000000
0.3063274268       585437.8234854010      0.2080000000      12.9913086156      0.3105736031      0.0000000000
0.3134822469       527516.3798071367      0.2100000000      12.9287028948      0.3180061054      0.0000000000
0.3207121646       475998.0446519281      0.2120000000      12.8702883199      0.3255246255      0.0000000000
0.3280151873       430106.6988837475      0.2140000000      12.8157721570      0.3331273313      0.0000000000
0.3353893324       389167.9372485296      0.2160000000      12.7648848257      0.3408123952      0.0000000000
0.3428326335       352594.8231870544      0.2180000000      12.7173780869      0.3485780006      0.0000000000
0.3503431341       319875.7096891585      0.2200000000      12.6730227264      0.3564223350      0.0000000000
0.3579188918       290563.9402731334      0.2220000000      12.6316070348      0.3643435947      0.0000000000
0.3655579937       264269.0510870846      0.2240000000      12.5929363633      0.3723400006      0.0000000000
0.3732585258       240649.0973189524      0.2260000000      12.5568296157      0.3804097660      0.0000000000
0.3810185883       219404.1349924607      0.2280000000      12.5231186149      0.3885511130      0.0000000000
0.3888363110       200270.8915735792      0.2300000000      12.4916487485      0.3967622883      0.0000000000
0.3967098315       183017.7721560150      0.2320000000      12.4622759235      0.4050415400      0.0000000000
0.4046372998       167440.7704387541      0.2340000000      12.4348658697      0.4133871232      0.0000000000
0.4126168898       153360.0256443035      0.2360000000      12.4092944717      0.4217973111      0.0000000000
0.4206467785       140616.6451160585      0.2380000000      12.3854451400      0.4302703740      0.0000000000
0.4287251807       129070.1717708858      0.2400000000      12.3632109576      0.4388046150      0.0000000000
0.4368502962       118596.1384196096      0.2420000000      12.3424897021      0.4473983149      0.0000000000
0.4450203710       109084.3006526363      0.2440000000      12.3231885094      0.4560497964      0.0000000000
0.4532336594       100436.7298070472      0.2460000000      12.3052198662      0.4647573846      0.0000000000
0.4614884159        92566.3445755941      0.2480000000      12.2885006362      0.4735193975      0.0000000000
0.4697829275        85395.6772385168      0.2500000000      12.2729542498      0.4823341813      0.0000000000
0.4781155061        78855.7215179998      0.2520000000      12.2585098155      0.4912001013      0.0000000000
0.4864844674        72884.8764833034      0.2540000000      12.2450997823      0.5001155204      0.0000000000
0.4948881422        67428.1168641595      0.2560000000      12.2326605633      0.5090788105      0.0000000000
0.5033248857        62436.2450954600      0.2580000000      12.2211331268      0.5180883627      0.0000000000
0.5117930755        57865.2330293724      0.2600000000      12.2104624680      0.5271425854      0.0000000000
0.5202910993        53675.6002390827      0.2620000000      12.2005962892      0.5362398905      0.0000000000
0.5288173596        49831.9165225576      0.2640000000      12.1914850578      0.5453786990      0.0000000000
0.5373702882        46302.3750853993      0.2660000000      12.1830832539      0.5545574567      0.0000000000
0.5459483299        43058.3690963195      0.2680000000      12.1753475457      0.5637746162      0.0000000000
0.5545499443        40074.1443761092      0.2700000000      12.1682368911      0.5730286393      0.0000000000
0.5631736172        37326.5013117648      0.2720000000      12.1617132063      0.5823180092      0.0000000000
0.5718178495        34794.5101999236      0.2740000000      12.1557403766      0.5916412186      0.0000000000
0.5804811582        32459.2730765637      0.2760000000      12.1502840809      0.6009967707      0.0000000000
0.5891620833        30303.7133252492      0.2780000000      12.1453122999      0.6103831868      0.0000000000
0.5978591826        28312.3815269982      0.2800000000      12.1407947295      0.6197990008      0.0000000000
0.6065710362        26471.2915046427      0.2820000000      12.1367030588      0.6292427640      0.0000000000
0.6152962349        24767.7589195330      0.2840000000      12.1330097523      0.6387130328      0.0000000000
0.6240333993        23190.2864366510      0.2860000000      12.1296898092      0.6482083892      0.0000000000
0.6327811660        21728.4230099584      0.2880000000      12.1267185682      0.6577274262      0.0000000000
0.6415381820        20372.6848337669      0.2900000000      12.1240738697      0.6672687413      0.0000000000
0.6503031291        19114.4363845862      0.2920000000      12.1217342012      0.6768309637      0.0000000000
0.6590746976        17945.8163284956      0.2940000000      12.1196789460      0.6864127257      0.0000000000
0.6678516040        16859.6637583138      0.2960000000      12.1178890918      0.6960126811      0.0000000000
0.6766325778        15849.4454417530      0.2980000000      12.1163460704      0.7056294924      0.0000000000
0.6854163785        14909.2037394128      0.3000000000      12.1150332637      0.7152618484      0.0000000000
0.6942017714        14033.4899564630      0.3020000000      12.1139336311      0.7249084379      0.0000000000
0.7029875586        13217.3312440593      0.3040000000      12.1130326296      0.7345679842      0.0000000000
0.7117725451        12456.1706938708      0.3060000000      12.1123149464      0.7442392078      0.0000000000
0.7205555697        11745.8409765507      0.3080000000      12.1117672960      0.7539208600      0.0000000000
0.7293354785        11082.5198937861      0.3100000000      12.1113760499      0.7636116947      0.0000000000
0.7381111456        10462.7052559797      0.3120000000      12.1111290009      0.7733104905      0.0000000000
0.7468814679         9883.1841160493      0.3140000000      12.1110148513      0.7830160457      0.0000000000
0.7556453483         9341.0017854580      0.3160000000      12.1110216690      0.7927271593      0.0000000000
0.7644017259         8833.4478534955      0.3180000000      12.1111396630      0.8024426646      0.0000000000
0.7731495460         8358.0257299657      0.3200000000      12.1113582872      0.8121613966      0.0000000000
0.7818877823         7912.4405857950      0.3220000000      12.1116684211      0.8218822162      0.0000000000
0.7906154245         7494.5781282486      0.3240000000      12.1120610622      0.8316039965      0.0000000000
0.7993314798         7102.4889741931      0.3260000000      12.1125274540      0.8413256250      0.0000000000
0.8080349798         6734.3772255092      0.3280000000      12.1130598271      0.8510460108      0.0000000000
0.8167249730         6388.5852038907      0.3300000000      12.1136506298      0.8607640773      0.0000000000
0.8254005243         6063.5812589107      0.3320000000      12.1142923713      0.8704787606      0.0000000000
0.8340607205         5757.9509775724      0.3340000000      12.1149782236      0.8801890164      0.0000000000
0.8427046690         5470.3870902572      0.3360000000      12.1157019053      0.8898938186      0.0000000000
0.8513314924         5199.6794727720      0.3380000000      12.1164570723      0.8995921535      0.0000000000
0.8599403361         4944.7081285881      0.3400000000      12.1172380217      0.9092830281      0.0000000000
0.8685303599         4704.4360394309      0.3420000000      12.1180392562      0.9189654608      0.0000000000
0.8771007443         4477.9016262112      0.3440000000      12.1188554506      0.9286384890      0.0000000000
0.8856506900         4264.2136336634      0.3460000000      12.1196818522      0.9383011682      0.0000000000
0.8941794124         4062.5444658279      0.3480000000      12.1205135965      0.9479525662      0.0000000000
0.9026861485         3872.1262822839      0.3500000000      12.1213464296      0.9575917708      0.0000000000
0.9111701522         3692.2457462123      0.3520000000      12.1221762181      0.9672178847      0.0000000000
0.9196306923         3522.2393792775      0.3540000000      12.1229987308      0.9768300233      0.0000000000
0.9280670611         3361.4909467254      0.3560000000      12.1238106080      0.9864273250      0.0000000000
0.9364785638         3209.4263517353      0.3580000000      12.1246081366      0.9960089384      0.0000000000
0.9448645248         3065.5112720557      0.3600000000      12.1253880391      1.0055740305      0.0000000000
0.9532242832         2929.2479108756      0.3620000000      12.1261469054      1.0151217807      0.0000000000
0.9615572025         2800.1731104166      0.3640000000      12.1268823391      1.0246513931      0.0000000000
0.9698626552         2677.8539602791      0.3660000000      12.1275911970      1.0341620781      0.0000000000
0.9781400342         2561.8871381677      0.3680000000      12.1282709774      1.0436530661      0.0000000000
0.9863887482         2451.8960258454      0.3700000000      12.1289191596      1.0531236020      0.0000000000
0.9946082231         2347.5289427138      0.3720000000      12.1295334924      1.0625729473      0.0000000000
1.0027978999         2248.4572916859      0.3740000000      12.1301117720      1.0720003774      0.0000000000
1.0109572352         2154.3738596845      0.3760000000      12.1306518302      1.0814051823      0.0000000000
1.0190857058         2064.9916380013      0.3780000000      12.1311521276      1.0907866725      0.0000000000
1.0271827978         1980.0415569454      0.3800000000      12.1316105563      1.1001441661      0.0000000000
1.0352480145         1899.2718773884      0.3820000000      12.1320252536      1.1094769979      0.0000000000
1.0432808775         1822.4471513460      0.3840000000      12.1323948722      1.1187845211      0.0000000000
1.0512809242         1749.3467366494      0.3860000000      12.1327182475      1.1280661049      0.0000000000
1.0592477011         1679.7633593462      0.3880000000      12.1329936056      1.1373211256      0.0000000000
1.0671807754         1613.5030886159      0.3900000000      12.1332199766      1.1465489813      0.0000000000
1.0750797250         1550.3837409405      0.3920000000      12.1333960794      1.1557490802      0.0000000000
1.0829441416         1490.2342805809      0.3940000000      12.1335206298      1.1649208437      0.0000000000
1.0907736347         1432.8941820099      0.3960000000      12.1335928183      1.1740637120      0.0000000000
1.0985678267         1378.2127985558      0.3980000000      12.1336118741      1.1831771377      0.0000000000
1.1063263497         1326.0481715557      0.4000000000      12.1335765895      1.1922605827      0.0000000000
1.1140488571         1276.2672901733      0.4020000000      12.1334867549      1.2013135319      0.0000000000
1.1217350062         1228.7445447684      0.4040000000      12.1333411020      1.2103354722      0.0000000000
1.1293844736         1183.3620349571      0.4060000000      12.1331391924      1.2193259117      0.0000000000
1.1369969471         1140.0087069992      0.4080000000      12.1328804279      1.2282843693      0.0000000000
1.1445721262         1098.5799359691      0.4100000000      12.1325641438      1.2372103762      0.0000000000
1.1521097286         1058.9773668482      0.4120000000      12.1321904496      1.2461034830      0.0000000000
1.1596094741         1021.1079039875      0.4140000000      12.1317582540      1.2549632413      0.0000000000
1.1670711053          984.8841944714      0.4160000000      12.1312678259      1.2637892280      0.0000000000
1.1744943686          950.2234926349      0.4180000000      12.1307184955      1.2725810225      0.0000000000
1.1818790245          917.0478877266      0.4200000000      12.1301099418      1.2813382203      0.0000000000
1.1892248458          885.2837675126      0.4220000000      12.1294419728      1.2900604291      0.0000000000
1.1965316165          854.8617251640      0.4240000000      12.1287144482      1.2987472692      0.0000000000
1.2037991345          825.7162251464      0.4260000000      12.1279276088      1.3073983759      0.0000000000
1.2110272016          797.7851072641      0.4280000000      12.1270808691      1.3160133879      0.0000000000
1.2182156376          771.0098941174      0.4300000000      12.1261745929      1.3245919644      0.0000000000
1.2253642658          745.3350021382      0.4320000000      12.1252082928      1.3331337676      0.0000000000
1.2324729259          720.7080912467      0.4340000000      12.1241822904      1.3416384780      0.0000000000
1.2395414651          697.0795307298      0.4360000000      12.1230966201      1.3501057844      0.0000000000
1.2465697406          674.4023640078      0.4380000000      12.1219513678      1.3585353868      0.0000000000
1.2535576190          652.6320554637      0.4400000000      12.1207465599      1.3669269954      0.0000000000
1.2605049752          631.7264558190      0.4420000000      12.1194821323      1.3752803294      0.0000000000
1.2674116996          611.6457669324      0.4440000000      12.1181588367      1.3835951262      0.0000000000
1.2742776814          592.3519691507      0.4460000000      12.1167761013      1.3918711211      0.0000000000
1.2811028289          573.8093108208      0.4480000000      12.1153346933      1.4001080716      0.0000000000
1.2878870535          555.9837205808      0.4500000000      12.1138346946      1.4083057385      0.0000000000
1.2946302760          538.8428883203      0.4520000000      12.1122762649      1.4164638935      0.0000000000
1.3013324261          522.3561509875      0.4540000000      12.1106596710      1.4245823184      0.0000000000
1.3079934419          506.4944239379      0.4560000000      12.1089852070      1.4326608048      0.0000000000
1.3146132703          491.2300981967      0.4580000000      12.1072533176      1.4406991549      0.0000000000
1.3211918647          476.5368847383      0.4600000000      12.1054642201      1.4486971781      0.0000000000
1.3277291852          462.3898269929      0.4620000000      12.1036180830      1.4566546918      0.0000000000
1.3342252034          448.7652603980      0.4640000000      12.1017155864      1.4645715275      0.0000000000
1.3406798951          435.6406144277      0.4660000000      12.0997569782      1.4724475209      0.0000000000
1.3470932418          422.9943941272      0.4680000000      12.0977423503      1.4802825154      0.0000000000
1.3534652366          410.8062430130      0.4700000000      12.0956723778      1.4880763677      0.0000000000
1.3597958767          399.0567443441      0.4720000000      12.0935474509      1.4958289400      0.0000000000
1.3660851666          387.7274141424      0.4740000000      12.0913679943      1.5035401033      0.0000000000
1.3723331162          376.8006365895      0.4760000000      12.0891342918      1.5112097350      0.0000000000
1.3785397429          366.2596297347      0.4780000000      12.0868467650      1.5188377221      0.0000000000
1.3847050714          356.0884681753      0.4800000000      12.0845060756      1.5264239607      0.0000000000
1.3908291298          346.2718879885      0.4820000000      12.0821124125      1.5339683508      0.0000000000
1.3969119554          336.7954150406      0.4840000000      12.0796665157      1.5414708042      0.0000000000
1.4029535863          327.6451581116      0.4860000000      12.0771683769      1.5489312342      0.0000000000
1.4089540730          318.8079797359      0.4880000000      12.0746189923      1.5563495692      0.0000000000
1.4149134661          310.2712635133      0.4900000000      12.0720185685      1.5637257382      0.0000000000
1.4208318236          302.0229974691      0.4920000000      12.0693676139      1.5710596796      0.0000000000
1.4267092083          294.0517075698      0.4940000000      12.0666666069      1.5783513383      0.0000000000
1.4325456884          286.3464571671      0.4960000000      12.0639160409      1.5856006659      0.0000000000
1.4383413371          278.8967729235      0.4980000000      12.0611164370      1.5928076211      0.0000000000
1.4440962323          271.6926881176      0.5000000000      12.0582683516      1.5999721685      0.0000000000
1.4498104551          264.7246305270      0.5020000000      12.0553720593      1.6070942773      0.0000000000
1.4554840947          257.9835157955      0.5040000000      12.0524284196      1.6141739273      0.0000000000
1.4611172391          251.4605630567      0.5060000000      12.0494373969      1.6212110972      0.0000000000
1.4667099877          245.1474993810      0.5080000000      12.0464000919      1.6282057807      0.0000000000
1.4722624386          239.0363245744      0.5100000000      12.0433167819      1.6351579705      0.0000000000
1.4777746944          233.1193858535      0.5120000000      12.0401877375      1.6420676649      0.0000000000
1.4832468643          227.3894102577      0.5140000000      12.0370137425      1.6489348719      0.0000000000
