# M(M_sol)                 Lambda          n_Bc(fm^-3)         R(km)            m_B(M_sol)        m_Bquar/M_B
0.1519728145     30442679.0203171410      0.1310000000      21.2729828007      0.1521863347      0.0000000000
0.1551956557     27085692.0604181476      0.1330000000      20.7551305179      0.1554534235      0.0000000000
0.1585536073     24077068.6741121896      0.1350000000      20.2656893577      0.1588592128      0.0000000000
0.1620537221     21381548.9348113313      0.1370000000      19.8028204603      0.1624110714      0.0000000000
0.1657029859     18968036.9946497865      0.1390000000      19.3649054171      0.1661163238      0.0000000000
0.1695083007     16808893.3560344093      0.1410000000      18.9505077837      0.1699822345      0.0000000000
0.1734764644     14879323.2850313429      0.1430000000      18.5583390592      0.1740159886      0.0000000000
0.1776141526     13156982.8441853225      0.1450000000      18.1872349410      0.1782246746      0.0000000000
0.1819278953     11621617.6886565033      0.1470000000      17.8361320609      0.1826152613      0.0000000000
0.1864240639     10254813.6165390406      0.1490000000      17.5040514907      0.1871945867      0.0000000000
0.1911088268      9039796.6606242638      0.1510000000      17.1900857361      0.1919693126      0.0000000000
0.1959881633      7961270.1957106097      0.1530000000      16.8933857191      0.1969459402      0.0000000000
0.2010678221      7005282.0622617425      0.1550000000      16.6131528504      0.2021307686      0.0000000000
0.2063533108      6159110.4362338400      0.1570000000      16.3486308810      0.2075298849      0.0000000000
0.2118498778      5411176.9642882999      0.1590000000      16.0991018681      0.2131491456      0.0000000000
0.2175624972      4750954.5011309227      0.1610000000      15.8638796387      0.2189941620      0.0000000000
0.2234958572      4168894.5158841158      0.1630000000      15.6423077123      0.2250702888      0.0000000000
0.2296543446      3656354.3183099874      0.1650000000      15.4337556758      0.2313826076      0.0000000000
0.2360420264      3205532.6884689461      0.1670000000      15.2376180187      0.2379359088      0.0000000000
0.2426626849      2809400.9267346826      0.1690000000      15.0533105936      0.2447347267      0.0000000000
0.2495197237      2461650.0289668120      0.1710000000      14.8802726991      0.2517832430      0.0000000000
0.2566162426      2156625.7356476956      0.1730000000      14.7179631619      0.2590853628      0.0000000000
0.2639549907      1889276.2019225757      0.1750000000      14.5658608523      0.2666446661      0.0000000000
0.2715383727      1655097.8491725074      0.1770000000      14.4234638012      0.2744644127      0.0000000000
0.2793684422      1450087.0711935384      0.1790000000      14.2902895033      0.2825475347      0.0000000000
0.2874469015      1270691.3623198839      0.1810000000      14.1658736478      0.2908966352      0.0000000000
0.2957750974      1113765.2691124047      0.1830000000      14.0497697031      0.2995139818      0.0000000000
0.3043540230       976530.6303569255      0.1850000000      13.9415495449      0.3084015075      0.0000000000
0.3131843171       856536.9204045237      0.1870000000      13.8408021566      0.3175608079      0.0000000000
0.3222662648       751627.0222233766      0.1890000000      13.7471336638      0.3269931404      0.0000000000
0.3315998002       659904.9217658336      0.1910000000      13.6601669250      0.3366994245      0.0000000000
0.3411845078       579706.4849937119      0.1930000000      13.5795410942      0.3466802411      0.0000000000
0.3510196283       509573.0541729005      0.1950000000      13.5049112624      0.3569358364      0.0000000000
0.3611040610       448227.5094297020      0.1970000000      13.4359480490      0.3674661221      0.0000000000
0.3714363683       394552.7641812935      0.1990000000      13.3723369340      0.3782706767      0.0000000000
0.3820147836       347572.7036059489      0.2010000000      13.3137781624      0.3893487523      0.0000000000
0.3928372155       306434.9331062290      0.2030000000      13.2599859301      0.4006992750      0.0000000000
0.4039012553       270395.6120131105      0.2050000000      13.2106880313      0.4123208509      0.0000000000
0.4152041852       238806.0220381707      0.2070000000      13.1656254369      0.4242117710      0.0000000000
0.4267429860       211100.5503810534      0.2090000000      13.1245515646      0.4363700167      0.0000000000
0.4385143453       186786.2899138502      0.2110000000      13.0872321913      0.4487932651      0.0000000000
0.4505146674       165433.7458225718      0.2130000000      13.0534444842      0.4614788969      0.0000000000
0.4627400830       146668.7369606616      0.2150000000      13.0229769409      0.4744240026      0.0000000000
0.4751864590       130165.2701238147      0.2170000000      12.9956285400      0.4876253901      0.0000000000
0.4878494098       115639.3694709488      0.2190000000      12.9712086260      0.5010795942      0.0000000000
0.5007243073       102843.5906316273      0.2210000000      12.9495361856      0.5147828828      0.0000000000
0.5138062937        91562.2971774543      0.2230000000      12.9304395092      0.5287312680      0.0000000000
0.5270902921        81607.5393210561      0.2250000000      12.9137558066      0.5429205144      0.0000000000
0.5405710194        72815.4421151941      0.2270000000      12.8993307624      0.5573461495      0.0000000000
0.5542429975        65043.0551369213      0.2290000000      12.8870180230      0.5720034725      0.0000000000
0.5681005672        58165.6530796605      0.2310000000      12.8766790202      0.5868875663      0.0000000000
0.5821378994        52074.3480716719      0.2330000000      12.8681824501      0.6019933073      0.0000000000
0.5963490093        46674.0299624506      0.2350000000      12.8614038865      0.6173153762      0.0000000000
0.6107277678        41881.5816458247      0.2370000000      12.8562255762      0.6328482690      0.0000000000
0.6252679163        37624.3315141599      0.2390000000      12.8525361344      0.6485863096      0.0000000000
0.6399630773        33838.6852923585      0.2410000000      12.8502300343      0.6645236591      0.0000000000
0.6548067695        30468.9658195785      0.2430000000      12.8492074263      0.6806543293      0.0000000000
0.6697924189        27466.3915321185      0.2450000000      12.8493738805      0.6969721922      0.0000000000
0.6849133728        24788.1943311556      0.2470000000      12.8506401603      0.7134709939      0.0000000000
0.7001629114        22396.8467773766      0.2490000000      12.8529218172      0.7301443646      0.0000000000
0.7155342606        20259.3972864530      0.2510000000      12.8561390519      0.7469858303      0.0000000000
0.7310206043        18346.8893960477      0.2530000000      12.8602164554      0.7639888252      0.0000000000
0.7466150961        16633.8562935021      0.2550000000      12.8650828063      0.7811467023      0.0000000000
0.7623108704        15097.8816522628      0.2570000000      12.8706708015      0.7984527444      0.0000000000
0.7781010554        13719.2203134442      0.2590000000      12.8769169798      0.8159001770      0.0000000000
0.7939787821        12480.4616234368      0.2610000000      12.8837613638      0.8334821766      0.0000000000
0.8099371962        11366.2430019538      0.2630000000      12.8911474323      0.8511918835      0.0000000000
0.8259694690        10362.9962978879      0.2650000000      12.8990218716      0.8690224126      0.0000000000
0.8420688044         9458.7274062087      0.2670000000      12.9073343943      0.8869668602      0.0000000000
0.8582284574         8642.8240958412      0.2690000000      12.9160376530      0.9050183245      0.0000000000
0.8744417207         7905.8904155457      0.2710000000      12.9250870699      0.9231698898      0.0000000000
0.8907019639         7239.5964830549      0.2730000000      12.9344405976      0.9414146696      0.0000000000
0.9070026220         6636.5534594981      0.2750000000      12.9440587778      0.9597457948      0.0000000000
0.9233372082         6090.2007249416      0.2770000000      12.9539044798      0.9781564267      0.0000000000
0.9396993210         5594.7069288483      0.2790000000      12.9639427647      0.9966397662      0.0000000000
0.9560826515         5144.8848708057      0.2810000000      12.9741408750      1.0151890613      0.0000000000
0.9724809899         4736.1162336662      0.2830000000      12.9844680516      1.0337976153      0.0000000000
0.9888882312         4364.2849892953      0.2850000000      12.9948954394      1.0524587939      0.0000000000
1.0052983809         4025.7195610763      0.2870000000      13.0053960068      1.0711660319      0.0000000000
1.0217055605         3717.1420458373      0.2890000000      13.0159444349      1.0899128403      0.0000000000
1.0381040118         3435.6231438877      0.2910000000      13.0265170654      1.1086928124      0.0000000000
1.0544881015         3178.5426400546      0.2930000000      13.0370917590      1.1274996294      0.0000000000
1.0708523251         2943.5548263189      0.2950000000      13.0476478535      1.1463270660      0.0000000000
1.0871913099         2728.5577981718      0.2970000000      13.0581660936      1.1651689956      0.0000000000
1.1034998186         2531.6662955726      0.2990000000      13.0686285449      1.1840193948      0.0000000000
1.1197727516         2351.1880009769      0.3010000000      13.0790185182      1.2028723480      0.0000000000
1.1360051498         2185.6023594149      0.3030000000      13.0893204919      1.2217220514      0.0000000000
1.1521921958         2033.5418670334      0.3050000000      13.0995201081      1.2405628164      0.0000000000
1.1683292160         1893.7757523629      0.3070000000      13.1096040350      1.2593890730      0.0000000000
1.1844116818         1765.1951794909      0.3090000000      13.1195599949      1.2781953731      0.0000000000
1.2004352099         1646.8001779263      0.3110000000      13.1293765974      1.2969763926      0.0000000000
1.2163955641         1537.6885983001      0.3130000000      13.1390434271      1.3157269342      0.0000000000
1.2322886542         1437.0453484257      0.3150000000      13.1485508809      1.3344419291      0.0000000000
1.2481105369         1344.1336641549      0.3170000000      13.1578901668      1.3531164388      0.0000000000
1.2638574153         1258.2868630225      0.3190000000      13.1670532697      1.3717456567      0.0000000000
1.2795256384         1178.9012497546      0.3210000000      13.1760328830      1.3903249087      0.0000000000
1.2951117002         1105.4296555093      0.3230000000      13.1848223917      1.4088496549      0.0000000000
1.3106122390         1037.3757967816      0.3250000000      13.1934158202      1.4273154894      0.0000000000
1.3260240358          974.2890445303      0.3270000000      13.2018077978      1.4457181413      0.0000000000
1.3413440132          915.7600447190      0.3290000000      13.2099935299      1.4640534744      0.0000000000
1.3565692340          861.4165194614      0.3310000000      13.2179687669      1.4823174874      0.0000000000
1.3716968988          810.9196564990      0.3330000000      13.2257297569      1.5005063134      0.0000000000
1.3867243455          763.9609072618      0.3350000000      13.2332732386      1.5186162204      0.0000000000
1.4016490442          720.2589899198      0.3370000000      13.2405963916      1.5366436072      0.0000000000
1.4164685989          679.5573140458      0.3390000000      13.2476968259      1.5545850074      0.0000000000
1.4311807431          641.6216256557      0.3410000000      13.2545725462      1.5724370855      0.0000000000
1.4457833374          606.2379051605      0.3430000000      13.2612219429      1.5901966361      0.0000000000
1.4602743674          573.2104557607      0.3450000000      13.2676437457      1.6078605828      0.0000000000
1.4746519412          542.3601956020      0.3470000000      13.2738370194      1.6254259766      0.0000000000
1.4889142864          513.5231287837      0.3490000000      13.2798011270      1.6428899943      0.0000000000
1.5030597476          486.5489978847      0.3510000000      13.2855357545      1.6602499372      0.0000000000
1.5170867837          461.2999419854      0.3530000000      13.2910407968      1.6775032288      0.0000000000
1.5309939650          437.6494830381      0.3550000000      13.2963164733      1.6946474130      0.0000000000
1.5447799704          415.4814476710      0.3570000000      13.3013631812      1.7116801526      0.0000000000
1.5584435842          394.6890575543      0.3590000000      13.3061815764      1.7285992265      0.0000000000
1.5719836938          375.1740944603      0.3610000000      13.3107724950      1.7454025281      0.0000000000
1.5853992863          356.8461704806      0.3630000000      13.3151369780      1.7620880629      0.0000000000
1.5986894460          339.6220310507      0.3650000000      13.3192762379      1.7786539465      0.0000000000
1.6118533511          323.4249361106      0.3670000000      13.3231916451      1.7950984019      0.0000000000
1.6248902707          308.1841125441      0.3690000000      13.3268847203      1.8114197575      0.0000000000
1.6377995627          293.8342510959      0.3710000000      13.3303571473      1.8276164447      0.0000000000
1.6505806700          280.3150193150      0.3730000000      13.3336107119      1.8436869953      0.0000000000
1.6632331179          267.5706714264      0.3750000000      13.3366473303      1.8596300394      0.0000000000
1.6757565118          255.5496523614      0.3770000000      13.3394690221      1.8754443025      0.0000000000
1.6881505336          244.2042594277      0.3790000000      13.3420779172      1.8911286039      0.0000000000
1.7004149395          233.4903134923      0.3810000000      13.3444762231      1.9066818532      0.0000000000
1.7125495571          223.3668898166      0.3830000000      13.3466662298      1.9221030487      0.0000000000
1.7245542827          213.7960444045      0.3850000000      13.3486503176      1.9373912747      0.0000000000
1.7364290783          204.7425825442      0.3870000000      13.3504309242      1.9525456987      0.0000000000
1.7481739699          196.1738122822      0.3890000000      13.3520105302      1.9675655697      0.0000000000
1.7597890440          188.0593996333      0.3910000000      13.3533917024      1.9824502152      0.0000000000
1.7712744455          180.3711297293      0.3930000000      13.3545770367      1.9971990390      0.0000000000
1.7826303754          173.0827755882      0.3950000000      13.3555691689      2.0118115189      0.0000000000
1.7938570879          166.1699293953      0.3970000000      13.3563707808      2.0262872043      0.0000000000
1.8049548888          159.6098729341      0.3990000000      13.3569845784      2.0406257140      0.0000000000
1.8159241322          153.3814313081      0.4010000000      13.3574132863      2.0548267336      0.0000000000
1.8267652194          147.4648780458      0.4030000000      13.3576596761      2.0688900138      0.0000000000
1.8374785956          141.8418116472      0.4050000000      13.3577264966      2.0828153674      0.0000000000
1.8480647487          136.4950661316      0.4070000000      13.3576165558      2.0966026679      0.0000000000
1.8585242065          131.4086075900      0.4090000000      13.3573326417      2.1102518468      0.0000000000
1.8688575352          126.5674644455      0.4110000000      13.3568775579      2.1237628918      0.0000000000
1.8790653372          121.9576385329      0.4130000000      13.3562541051      2.1371358447      0.0000000000
1.8891482491          117.5660428562      0.4150000000      13.3554650936      2.1503707990      0.0000000000
1.8991069402          113.3804286768      0.4170000000      13.3545133171      2.1634678985      0.0000000000
1.9089421103          109.3893371024      0.4190000000      13.3534015858      2.1764273347      0.0000000000
1.9186544881          105.5820266180      0.4210000000      13.3521326679      2.1892493452      0.0000000000
1.9282448299          101.9484386345      0.4230000000      13.3507093563      2.2019342125      0.0000000000
1.9377139171           98.4791380339      0.4250000000      13.3491344116      2.2144822607      0.0000000000
1.9470625556           95.1652784033      0.4270000000      13.3474105820      2.2268938549      0.0000000000
1.9562915735           91.9985540813      0.4290000000      13.3455406093      2.2391693990      0.0000000000
1.9654018202           88.9711676744      0.4310000000      13.3435271943      2.2513093341      0.0000000000
1.9743941645           86.0757952880      0.4330000000      13.3413730483      2.2633141368      0.0000000000
1.9832694936           83.3055531547      0.4350000000      13.3390808434      2.2751843179      0.0000000000
1.9920287116           80.6539685329      0.4370000000      13.3366532310      2.2869204200      0.0000000000
2.0006727382           78.1149517598      0.4390000000      13.3340928469      2.2985230169      0.0000000000
2.0092025076           75.6827704294      0.4410000000      13.3314022813      2.3099927117      0.0000000000
2.0176189672           73.3520306489      0.4430000000      13.3285841271      2.3213301351      0.0000000000
2.0259230765           71.1176483546      0.4450000000      13.3256409387      2.3325359446      0.0000000000
2.0341158060           68.9748322412      0.4470000000      13.3225752321      2.3436108226      0.0000000000
2.0421981363           66.9190660146      0.4490000000      13.3193895072      2.3545554755      0.0000000000
2.0501710567           64.9460890574      0.4510000000      13.3160862332      2.3653706320      0.0000000000
2.0580355648           63.0518810974      0.4530000000      13.3126678546      2.3760570420      0.0000000000
2.0657926652           61.2326458131      0.4550000000      13.3091367811      2.3866154759      0.0000000000
2.0734433683           59.4847994365      0.4570000000      13.3054953875      2.3970467223      0.0000000000
2.0809886905           57.8049517761      0.4590000000      13.3017460194      2.4073515883      0.0000000000
2.0884296521           56.1899047738      0.4610000000      13.2978910051      2.4175308970      0.0000000000
2.0957672774           54.6366284666      0.4630000000      13.2939326252      2.4275854876      0.0000000000
2.1030025939           53.1422590765      0.4650000000      13.2898731350      2.4375162136      0.0000000000
2.1101366310           51.7040851187      0.4670000000      13.2857147598      2.4473239423      0.0000000000
2.1171704201           50.3195406916      0.4690000000      13.2814596878      2.4570095536      0.0000000000
2.1241049932           48.9861950098      0.4710000000      13.2771100874      2.4665739391      0.0000000000
2.1309413828           47.7017443092      0.4730000000      13.2726680744      2.4760180011      0.0000000000
2.1376806214           46.4640053837      0.4750000000      13.2681357567      2.4853426521      0.0000000000
2.1443237403           45.2709080250      0.4770000000      13.2635151937      2.4945488138      0.0000000000
2.1508717697           44.1204883414      0.4790000000      13.2588084177      2.5036374159      0.0000000000
2.1573257382           43.0108828431      0.4810000000      13.2540174292      2.5126093963      0.0000000000
2.1636866716           41.9403231202      0.4830000000      13.2491442050      2.5214656992      0.0000000000
2.1699555933           40.9071267873      0.4850000000      13.2441906648      2.5302072754      0.0000000000
2.1761335234           39.9097008319      0.4870000000      13.2391587341      2.5388350808      0.0000000000
2.1822214786           38.9465266711      0.4890000000      13.2340502776      2.5473500764      0.0000000000
