# M(M_sol)                 Lambda          n_Bc(fm^-3)         R(km)            m_B(M_sol)        m_Bquar/M_B
0.1519546828     44208398.5130631551      0.1030000000      23.3456445462      0.1521679200      0.0000000000
0.1549228770     40049613.0125901699      0.1050000000      22.8300363636      0.1551766841      0.0000000000
0.1579166584     36335867.9007225484      0.1070000000      22.3503457662      0.1582127329      0.0000000000
0.1609438271     33002993.0154490136      0.1090000000      21.9018549043      0.1612840118      0.0000000000
0.1640121649     29999176.8969008885      0.1110000000      21.4806660715      0.1643984617      0.0000000000
0.1671294462     27282170.1095101535      0.1130000000      21.0835424450      0.1675640310      0.0000000000
0.1702638897     24846136.2770223022      0.1150000000      20.7122929267      0.1707484875      0.0000000000
0.1734118047     22660088.9896218777      0.1170000000      20.3649019950      0.1739480992      0.0000000000
0.1766025910     20677212.4437344670      0.1190000000      20.0362470207      0.1771927855      0.0000000000
0.1798499599     18870272.5579054542      0.1210000000      19.7237063616      0.1804965567      0.0000000000
0.1831648416     17218571.0951626115      0.1230000000      19.4253706273      0.1838706190      0.0000000000
0.1865570342     15705478.9660663176      0.1250000000      19.1397515578      0.1873250488      0.0000000000
0.1900357569     14317244.5848334506      0.1270000000      18.8656555881      0.1908693540      0.0000000000
0.1936098852     13042280.8045827989      0.1290000000      18.6021138367      0.1945127139      0.0000000000
0.1972880760     11870691.8001077939      0.1310000000      18.3483344753      0.1982641070      0.0000000000
0.2010788335     10793889.0085164551      0.1330000000      18.1036669532      0.2021323788      0.0000000000
0.2049905440      9804345.6183271147      0.1350000000      17.8675782974      0.2061262784      0.0000000000
0.2090314927      8895379.4957039636      0.1370000000      17.6396307384      0.2102544766      0.0000000000
0.2132098687      8060997.7499802830      0.1390000000      17.4194653283      0.2145255723      0.0000000000
0.2175337599      7295768.4926925516      0.1410000000      17.2067883865      0.2189480883      0.0000000000
0.2220111458      6594724.4574072482      0.1430000000      17.0013591812      0.2235304657      0.0000000000
0.2266498784      5953282.4066529199      0.1450000000      16.8029795130      0.2282810452      0.0000000000
0.2314576749      5367187.7859309921      0.1470000000      16.6114864449      0.2332080611      0.0000000000
0.2364420874      4832463.1397651946      0.1490000000      16.4267432929      0.2383196114      0.0000000000
0.2416104877      4345377.4127575895      0.1510000000      16.2486343336      0.2436236442      0.0000000000
0.2469700517      3902413.7182384697      0.1530000000      16.0770579022      0.2491279415      0.0000000000
0.2525277070      3500258.1681446913      0.1550000000      15.9119240968      0.2548400676      0.0000000000
0.2582901570      3135776.2364319041      0.1570000000      15.7531481933      0.2607673942      0.0000000000
0.2642638270      2806008.5238064690      0.1590000000      15.6006488453      0.2669170462      0.0000000000
0.2704548491      2508160.8456777381      0.1610000000      15.4543448544      0.2732958863      0.0000000000
0.2768690490      2239599.3599272347      0.1630000000      15.3141528727      0.2799105024      0.0000000000
0.2835119226      1997847.1842901788      0.1650000000      15.1799864688      0.2867671836      0.0000000000
0.2903886171      1780579.2038443394      0.1670000000      15.0517538960      0.2938719011      0.0000000000
0.2975039186      1585620.5410235829      0.1690000000      14.9293576884      0.3012302945      0.0000000000
0.3048622336      1410941.9805915244      0.1710000000      14.8126941198      0.3088476536      0.0000000000
0.3124675925      1254656.4616581185      0.1730000000      14.7016528519      0.3167289205      0.0000000000
0.3203236149      1115015.4098527676      0.1750000000      14.5961169480      0.3248786535      0.0000000000
0.3284335132       990403.6352603446      0.1770000000      14.4959630752      0.3333010300      0.0000000000
0.3368000909       879334.2186470894      0.1790000000      14.4010620513      0.3419998432      0.0000000000
0.3454257250       780442.5854784236      0.1810000000      14.3112787253      0.3509784823      0.0000000000
0.3543123712       692481.1612352686      0.1830000000      14.2264735300      0.3602399373      0.0000000000
0.3634615571       614312.0819692254      0.1850000000      14.1465020845      0.3697867887      0.0000000000
0.3728743824       544901.2729029747      0.1870000000      14.0712168010      0.3796212069      0.0000000000
0.3825515194       483311.2476139373      0.1890000000      14.0004668726      0.3897449497      0.0000000000
0.3924932141       428694.7798288556      0.1910000000      13.9340995194      0.4001593614      0.0000000000
0.4026992898       380287.8757326650      0.1930000000      13.8719603177      0.4108653738      0.0000000000
0.4131691500       337403.4374995866      0.1950000000      13.8138940424      0.4218635065      0.0000000000
0.4239017883       299424.8162356871      0.1970000000      13.7597453721      0.4331538743      0.0000000000
0.4348957870       265799.8719141434      0.1990000000      13.7093592815      0.4447361826      0.0000000000
0.4461493334       236035.0727883115      0.2010000000      13.6625818985      0.4566097411      0.0000000000
0.4576602182       209690.1336695421      0.2030000000      13.6192605335      0.4687734593      0.0000000000
0.4694258532       186372.8843108418      0.2050000000      13.5792446694      0.4812258610      0.0000000000
0.4814432791       165734.5712472190      0.2070000000      13.5423861606      0.4939650890      0.0000000000
0.4937091714       147465.3986127881      0.2090000000      13.5085392080      0.5069889081      0.0000000000
0.5062198592       131290.5942419843      0.2110000000      13.4775613129      0.5202947210      0.0000000000
0.5189713311       116966.6923766561      0.2130000000      13.4493131955      0.5338795706      0.0000000000
0.5319592521       104278.1254993013      0.2150000000      13.4236589170      0.5477401544      0.0000000000
0.5451789738        93034.2508338742      0.2170000000      13.4004662727      0.5618728310      0.0000000000
0.5586255517        83066.5541387970      0.2190000000      13.3796068344      0.5762736353      0.0000000000
0.5722937556        74226.1885202551      0.2210000000      13.3609560961      0.5909382849      0.0000000000
0.5861780874        66381.7406206079      0.2230000000      13.3443935560      0.6058621965      0.0000000000
0.6002727932        59417.2408082532      0.2250000000      13.3298026458      0.6210404937      0.0000000000
0.6145718813        53230.3699537606      0.2270000000      13.3170708825      0.6364680234      0.0000000000
0.6290691360        47730.9023491991      0.2290000000      13.3060899445      0.6521393668      0.0000000000
0.6437581339        42839.2566011879      0.2310000000      13.2967554656      0.6680488530      0.0000000000
0.6586322594        38485.2612872428      0.2330000000      13.2889670756      0.6841905730      0.0000000000
0.6736847214        34607.0468121146      0.2350000000      13.2826284671      0.7005583932      0.0000000000
0.6889085690        31150.0498961719      0.2370000000      13.2776472044      0.7171459702      0.0000000000
0.7042967064        28066.1487495582      0.2390000000      13.2739346454      0.7339467633      0.0000000000
0.7198419102        25312.8987144718      0.2410000000      13.2714060003      0.7509540502      0.0000000000
0.7355368456        22852.8470109971      0.2430000000      13.2699800957      0.7681609420      0.0000000000
0.7513740803        20652.9391787965      0.2450000000      13.2695794016      0.7855603959      0.0000000000
0.7673461010        18683.9969625005      0.2470000000      13.2701299014      0.8031452300      0.0000000000
0.7834453294        16920.2435261833      0.2490000000      13.2715609051      0.8209081392      0.0000000000
0.7996641349        15338.9100144335      0.2510000000      13.2738051096      0.8388417064      0.0000000000
0.8159948526        13919.8629824700      0.2530000000      13.2767983447      0.8569384210      0.0000000000
0.8324297944        12645.3010595216      0.2550000000      13.2804796228      0.8751906885      0.0000000000
0.8489612648        11499.4685283485      0.2570000000      13.2847908757      0.8935908468      0.0000000000
0.8655815739        10468.4172200182      0.2590000000      13.2896769381      0.9121311792      0.0000000000
0.8822830494         9539.7899197893      0.2610000000      13.2950854675      0.9308039265      0.0000000000
0.8990580527         8702.6314199777      0.2630000000      13.3009667583      0.9496013035      0.0000000000
0.9158989853         7947.2264662908      0.2650000000      13.3072737654      0.9685155057      0.0000000000
0.9327983056         7264.9499590659      0.2670000000      13.3139618471      0.9875387271      0.0000000000
0.9497485377         6648.1416141841      0.2690000000      13.3209888060      1.0066631699      0.0000000000
0.9667422820         6089.9927490697      0.2710000000      13.3283147262      1.0258810558      0.0000000000
0.9837722254         5584.4469675944      0.2730000000      13.3359018541      1.0451846376      0.0000000000
1.0008311505         5126.1138190707      0.2750000000      13.3437145881      1.0645662095      0.0000000000
1.0179119450         4710.1915077052      0.2770000000      13.3517193722      1.0840181177      0.0000000000
1.0350076091         4332.3994881598      0.2790000000      13.3598845428      1.1035327699      0.0000000000
1.0521112638         3988.9188545712      0.2810000000      13.3681802888      1.1231026448      0.0000000000
1.0692161583         3676.3399284882      0.2830000000      13.3765785709      1.1427203012      0.0000000000
1.0863156753         3391.6164794480      0.2850000000      13.3850530909      1.1623783851      0.0000000000
1.1034033386         3132.0242509920      0.2870000000      13.3935791148      1.1820696394      0.0000000000
1.1204728177         2895.1252082898      0.2890000000      13.4021334821      1.2017869101      0.0000000000
1.1375179324         2678.7358212184      0.2910000000      13.4106944810      1.2215231530      0.0000000000
1.1545326619         2480.8986589554      0.2930000000      13.4192418317      1.2412714459      0.0000000000
1.1715111328         2299.8579400242      0.2950000000      13.4277565776      1.2610249755      0.0000000000
1.1884476446         2134.0371300628      0.2970000000      13.4362210169      1.2807770690      0.0000000000
1.2053366595         1982.0196471851      0.2990000000      13.4446187368      1.3005211839      0.0000000000
1.2221728060         1842.5316581742      0.3010000000      13.4529343927      1.3202509141      0.0000000000
1.2389508832         1714.4264464035      0.3030000000      13.4611537998      1.3399599963      0.0000000000
1.2556658600         1596.6714030464      0.3050000000      13.4692637787      1.3596423113      0.0000000000
1.2723128780         1488.3354191567      0.3070000000      13.4772521628      1.3792918894      0.0000000000
1.2888872514         1388.5785234147      0.3090000000      13.4851077346      1.3989029125      0.0000000000
1.3053844673         1296.6422068360      0.3110000000      13.4928201590      1.4184697157      0.0000000000
1.3218001856         1211.8410135729      0.3130000000      13.5003799538      1.4379867904      0.0000000000
1.3381302352         1133.5550433063      0.3150000000      13.5077784058      1.4574487813      0.0000000000
1.3543706269         1061.2231018928      0.3170000000      13.5150076513      1.4768505040      0.0000000000
1.3705175317          994.3368884341      0.3190000000      13.5220604440      1.4961869214      0.0000000000
1.3865672939          932.4355375452      0.3210000000      13.5289302840      1.5154531616      0.0000000000
1.4025164249          875.1008712043      0.3230000000      13.5356113053      1.5346445127      0.0000000000
1.4183616024          821.9532086464      0.3250000000      13.5420982485      1.5537564240      0.0000000000
1.4340996673          772.6474618639      0.3270000000      13.5483864105      1.5727845044      0.0000000000
1.4497276223          726.8698015714      0.3290000000      13.5544716551      1.5917245232      0.0000000000
1.4652426291          684.3345718132      0.3310000000      13.5603503589      1.6105724085      0.0000000000
1.4806420052          644.7815906849      0.3330000000      13.5660193466      1.6293242461      0.0000000000
1.4959232223          607.9735999004      0.3350000000      13.5714759396      1.6479762792      0.0000000000
1.5110839021          573.6942569196      0.3370000000      13.5767178652      1.6665249056      0.0000000000
1.5261218140          541.7459530564      0.3390000000      13.5817432588      1.6849666770      0.0000000000
1.5410348715          511.9481945985      0.3410000000      13.5865506297      1.7032982965      0.0000000000
1.5558211291          484.1358858195      0.3430000000      13.5911388296      1.7215166175      0.0000000000
1.5704787790          458.1580125206      0.3450000000      13.5955070470      1.7396186403      0.0000000000
1.5850061474          433.8762377002      0.3470000000      13.5996548089      1.7576015114      0.0000000000
1.5994016911          411.1638345191      0.3490000000      13.6035818810      1.7754625191      0.0000000000
1.6136639943          389.9045519386      0.3510000000      13.6072883470      1.7931990931      0.0000000000
1.6277917644          369.9917121345      0.3530000000      13.6107745189      1.8108088005      0.0000000000
1.6417838289          351.3273487942      0.3550000000      13.6140409499      1.8282893432      0.0000000000
1.6556391314          333.8214209443      0.3570000000      13.6170883956      1.8456385556      0.0000000000
1.6693567285          317.3911373211      0.3590000000      13.6199178628      1.8628544017      0.0000000000
1.6829357858          301.9602688209      0.3610000000      13.6225304974      1.8799349720      0.0000000000
1.6963755770          287.4586477099      0.3630000000      13.6249276238      1.8968784840      0.0000000000
1.7096754690          273.8215934322      0.3650000000      13.6271107737      1.9136832647      0.0000000000
1.7228349358          260.9894533208      0.3670000000      13.6290815604      1.9303477698      0.0000000000
1.7358535434          248.9071865420      0.3690000000      13.6308418025      1.9468705661      0.0000000000
1.7487309489          237.5239590051      0.3710000000      13.6323933930      1.9632503312      0.0000000000
1.7614668974          226.7928089155      0.3730000000      13.6337383742      1.9794858520      0.0000000000
1.7740612182          216.6702909368      0.3750000000      13.6348788700      1.9955760199      0.0000000000
1.7865138216          207.1162335459      0.3770000000      13.6358171003      2.0115198286      0.0000000000
1.7988246962          198.0934262247      0.3790000000      13.6365553988      2.0273163716      0.0000000000
1.8109939047          189.5674103037      0.3810000000      13.6370961562      2.0429648380      0.0000000000
1.8230215812          181.5062267216      0.3830000000      13.6374418309      2.0584645100      0.0000000000
1.8349079282          173.8802396033      0.3850000000      13.6375949574      2.0738147603      0.0000000000
1.8466532132          166.6619452190      0.3870000000      13.6375581061      2.0890150483      0.0000000000
1.8582577660          159.8257976803      0.3890000000      13.6373339205      2.1040649179      0.0000000000
1.8697219762          153.3480563380      0.3910000000      13.6369250946      2.1189639947      0.0000000000
1.8810462887          147.2066429551      0.3930000000      13.6363342860      2.1337119817      0.0000000000
1.8922312036          141.3810238165      0.3950000000      13.6355642944      2.1483086587      0.0000000000
1.9032772709          135.8520860292      0.3970000000      13.6346178642      2.1627538776      0.0000000000
1.9141850895          130.6020125089      0.3990000000      13.6334977957      2.1770475609      0.0000000000
1.9249553040          125.6142145224      0.4010000000      13.6322068725      2.1911896982      0.0000000000
1.9355886028          120.8732136690      0.4030000000      13.6307479628      2.2051803447      0.0000000000
1.9460857147          116.3645665823      0.4050000000      13.6291238637      2.2190196170      0.0000000000
1.9564474076          112.0747981455      0.4070000000      13.6273374180      2.2327076919      0.0000000000
1.9666744857          107.9913140150      0.4090000000      13.6253914672      2.2462448036      0.0000000000
1.9767677876          104.1023444285      0.4110000000      13.6232888372      2.2596312410      0.0000000000
1.9867281838          100.3968897713      0.4130000000      13.6210323706      2.2728673456      0.0000000000
1.9965565751           96.8646530885      0.4150000000      13.6186248902      2.2859535092      0.0000000000
2.0062538905           93.4959986384      0.4170000000      13.6160691883      2.2988901716      0.0000000000
2.0158210852           90.2819029430      0.4190000000      13.6133680911      2.3116778183      0.0000000000
2.0252591387           87.2139080821      0.4210000000      13.6105243737      2.3243169788      0.0000000000
2.0345690535           84.2840858122      0.4230000000      13.6075408024      2.3368082237      0.0000000000
2.0437518529           81.4850007658      0.4250000000      13.6044201435      2.3491521640      0.0000000000
2.0528085795           78.8096757967      0.4270000000      13.6011651133      2.3613494477      0.0000000000
2.0617402938           76.2515570259      0.4290000000      13.5977784193      2.3734007588      0.0000000000
2.0705480728           73.8044911245      0.4310000000      13.5942627584      2.3853068155      0.0000000000
2.0792330078           71.4626945386      0.4330000000      13.5906207898      2.3970683675      0.0000000000
2.0877962040           69.2207265389      0.4350000000      13.5868551321      2.4086861956      0.0000000000
2.0962387787           67.0734727611      0.4370000000      13.5829684110      2.4201611089      0.0000000000
2.1045618599           65.0161184845      0.4390000000      13.5789632040      2.4314939437      0.0000000000
2.1127665854           63.0441299960      0.4410000000      13.5748420551      2.4426855620      0.0000000000
2.1208541014           61.1532368616      0.4430000000      13.5706074946      2.4537368496      0.0000000000
2.1288255614           59.3394146036      0.4450000000      13.5662620083      2.4646487149      0.0000000000
2.1366821253           57.5988675099      0.4470000000      13.5618080562      2.4754220875      0.0000000000
2.1444249584           55.9280188130      0.4490000000      13.5572480740      2.4860579167      0.0000000000
2.1520552300           54.3234866524      0.4510000000      13.5525844447      2.4965571703      0.0000000000
2.1595741130           52.7820865054      0.4530000000      13.5478195521      2.5069208329      0.0000000000
2.1669827829           51.3008048786      0.4550000000      13.5429557156      2.5171499057      0.0000000000
2.1742824166           49.8767965850      0.4570000000      13.5379952322      2.5272454038      0.0000000000
2.1814741920           48.5073712122      0.4590000000      13.5329403698      2.5372083564      0.0000000000
2.1885592874           47.1899850029      0.4610000000      13.5277933631      2.5470398054      0.0000000000
