# M(M_sol)                 Lambda          n_Bc(fm^-3)         R(km)            m_B(M_sol)        m_Bquar/M_B
0.1534949276     40684682.8023133054      0.0980000000      22.9892882090      0.1537470686      0.0000000000
0.1589645416     34231707.8471026123      0.1000000000      22.1582985177      0.1592934481      0.0000000000
0.1645384591     28953227.7952924371      0.1020000000      21.4305353261      0.1649499289      0.0000000000
0.1702118927     24603632.9018238485      0.1040000000      20.7890613326      0.1707118673      0.0000000000
0.1759804259     20996827.2851187214      0.1060000000      20.2203686223      0.1765749867      0.0000000000
0.1818399722     17989390.7790049687      0.1080000000      19.7135617894      0.1825353367      0.0000000000
0.1877867351     15469279.9886484202      0.1100000000      19.2597613766      0.1885892533      0.0000000000
0.1938171845     13348008.1228683386      0.1120000000      18.8516650455      0.1947333353      0.0000000000
0.1998745466     11569370.3303010520      0.1140000000      18.4862600312      0.2009098603      0.0000000000
0.2058913617     10084311.8275426161      0.1160000000      18.1608046007      0.2070500114      0.0000000000
0.2119174153      8825754.7271349356      0.1180000000      17.8669021895      0.2132045445      0.0000000000
0.2179649411      7751399.4412420923      0.1200000000      17.5997579045      0.2193859828      0.0000000000
0.2240395248      6829260.2078086631      0.1220000000      17.3557538155      0.2256000869      0.0000000000
0.2301443672      6034122.6458176710      0.1240000000      17.1319818784      0.2318501950      0.0000000000
0.2362815284      5345716.4700867152      0.1260000000      16.9260398852      0.2381384874      0.0000000000
0.2424524466      4747537.9277069801      0.1280000000      16.7359097263      0.2444665148      0.0000000000
0.2486581840      4226030.2997871153      0.1300000000      16.5598779956      0.2508354478      0.0000000000
0.2548995672      3769967.2862737165      0.1320000000      16.3964757033      0.2572462199      0.0000000000
0.2611772616      3369996.5292385234      0.1340000000      16.2444343250      0.2636996023      0.0000000000
0.2674918245      3018283.0497918352      0.1360000000      16.1026520500      0.2701962592      0.0000000000
0.2738437346      2708228.8851875509      0.1380000000      15.9701655667      0.2767367762      0.0000000000
0.2802334147      2434254.8937157113      0.1400000000      15.8461298209      0.2833216847      0.0000000000
0.2866612432      2191622.7010380118      0.1420000000      15.7297989291      0.2899514727      0.0000000000
0.2931275680      1976292.8170496502      0.1440000000      15.6205126762      0.2966265993      0.0000000000
0.2996327078      1784809.6321627039      0.1460000000      15.5176838859      0.3033474959      0.0000000000
0.3061769614      1614206.9211547247      0.1480000000      15.4207887157      0.3101145755      0.0000000000
0.3127606100      1461931.5367836824      0.1500000000      15.3293586605      0.3169282355      0.0000000000
0.3193839165      1325778.1192824538      0.1520000000      15.2429726473      0.3237888563      0.0000000000
0.3260471315      1203837.7594940353      0.1540000000      15.1612520600      0.3306968078      0.0000000000
0.3327504967      1094452.5568766433      0.1560000000      15.0838542473      0.3376524530      0.0000000000
0.3394942192       996180.4903721301      0.1580000000      15.0104699811      0.3446561208      0.0000000000
0.3462785156       907763.1809450294      0.1600000000      14.9408182555      0.3517081524      0.0000000000
0.3531035807       828100.2490471508      0.1620000000      14.8746432458      0.3588088679      0.0000000000
0.3599695946       756227.9803752629      0.1640000000      14.8117122744      0.3659585746      0.0000000000
0.3668767245       691299.8167109607      0.1660000000      14.7518123111      0.3731575681      0.0000000000
0.3738251220       632571.2998101980      0.1680000000      14.6947487893      0.3804061297      0.0000000000
0.3808149227       579386.0861314907      0.1700000000      14.6403429923      0.3877045259      0.0000000000
0.3878462473       531164.6338590224      0.1720000000      14.5884309121      0.3950530097      0.0000000000
0.3949191975       487394.4159851552      0.1740000000      14.5388615403      0.4024518156      0.0000000000
0.4020338587       447621.0672759090      0.1760000000      14.4914954881      0.4099011633      0.0000000000
0.4091902911       411441.5877987051      0.1780000000      14.4462043578      0.4174012475      0.0000000000
0.4163885531       378497.5679755678      0.1800000000      14.4028691197      0.4249522628      0.0000000000
0.4236286666       348469.9883591640      0.1820000000      14.3613796255      0.4325543671      0.0000000000
0.4309106370       321074.4415781495      0.1840000000      14.3216336595      0.4402077023      0.0000000000
0.4382344492       296056.9875143491      0.1860000000      14.2835362868      0.4479123903      0.0000000000
0.4456000659       273190.5581381992      0.1880000000      14.2469991063      0.4556685315      0.0000000000
0.4530074263       252271.9346181523      0.1900000000      14.2119398578      0.4634762020      0.0000000000
0.4604564469       233118.8919762094      0.1920000000      14.1782817172      0.4713354557      0.0000000000
0.4679470193       215567.9335161647      0.1940000000      14.1459529421      0.4792463212      0.0000000000
0.4754790119       199472.1036593342      0.1960000000      14.1148865419      0.4872088040      0.0000000000
0.4830522669       184699.1999849051      0.1980000000      14.0850195441      0.4952228820      0.0000000000
0.4906666017       171130.1697013869      0.2000000000      14.0562931946      0.5032885086      0.0000000000
0.4983218073       158657.6684906693      0.2020000000      14.0286521650      0.5114056093      0.0000000000
0.5060176493       147184.7611577300      0.2040000000      14.0020444769      0.5195740836      0.0000000000
0.5137538670       136623.9096253603      0.2060000000      13.9764213892      0.5277938036      0.0000000000
0.5215301716       126895.9180777412      0.2080000000      13.9517367437      0.5360646117      0.0000000000
0.5293462485       117929.0723248058      0.2100000000      13.9279472259      0.5443863234      0.0000000000
0.5372017567       109658.3975051850      0.2120000000      13.9050119716      0.5527587261      0.0000000000
0.5450963264       102024.9432287477      0.2140000000      13.8828921774      0.5611815765      0.0000000000
0.5530295624        94975.2003983000      0.2160000000      13.8615513722      0.5696546039      0.0000000000
0.5610010412        88460.5371238102      0.2180000000      13.8409549233      0.5781775077      0.0000000000
0.5690103129        82436.7152235635      0.2200000000      13.8210700132      0.5867499581      0.0000000000
0.5770569006        76863.4845240854      0.2220000000      13.8018656271      0.5953715960      0.0000000000
0.5851403028        71704.1527139242      0.2240000000      13.7833121416      0.6040420354      0.0000000000
0.5932599845        66925.2902513536      0.2260000000      13.7653816051      0.6127608536      0.0000000000
0.6014153916        62496.3784423752      0.2280000000      13.7480472985      0.6215276063      0.0000000000
0.6096059413        58389.5630376753      0.2300000000      13.7312839675      0.6303418172      0.0000000000
0.6178310251        54579.3720840707      0.2320000000      13.7150673225      0.6392029814      0.0000000000
0.6260900102        51042.5305733457      0.2340000000      13.6993744763      0.6481105660      0.0000000000
0.6343822374        47757.7336769526      0.2360000000      13.6841834240      0.6570640083      0.0000000000
0.6427070240        44705.4648732484      0.2380000000      13.6694731223      0.6660627184      0.0000000000
0.6510636637        41867.8511529848      0.2400000000      13.6552237150      0.6751060793      0.0000000000
0.6594514260        39228.4963009568      0.2420000000      13.6414159114      0.6841934455      0.0000000000
0.6678695581        36772.3600573396      0.2440000000      13.6280315016      0.6933241455      0.0000000000
0.6763172851        34485.6310378510      0.2460000000      13.6150529390      0.7024974811      0.0000000000
0.6847938101        32355.6237238333      0.2480000000      13.6024634398      0.7117127282      0.0000000000
0.6932983158        30370.6764428192      0.2500000000      13.5902469587      0.7209691376      0.0000000000
0.7018299639        28520.0646882173      0.2520000000      13.5783880545      0.7302659345      0.0000000000
0.7103878977        26793.9142042845      0.2540000000      13.5668719194      0.7396023213      0.0000000000
0.7189712409        25183.1355568349      0.2560000000      13.5556843501      0.7489774760      0.0000000000
0.7275790988        23679.3587441378      0.2580000000      13.5448117257      0.7583905531      0.0000000000
0.7362105611        22274.8607300814      0.2600000000      13.5342409914      0.7678406868      0.0000000000
0.7448646996        20962.5236962752      0.2620000000      13.5239595380      0.7773269884      0.0000000000
0.7535405703        19735.7767901486      0.2640000000      13.5139551803      0.7868485480      0.0000000000
0.7622372153        18588.5553440901      0.2660000000      13.5042163372      0.7964044368      0.0000000000
0.7709536622        17515.2561943618      0.2680000000      13.4947317342      0.8059937064      0.0000000000
0.7796889256        16510.7027253228      0.2700000000      13.4854906422      0.8156153896      0.0000000000
0.7884420075        15570.1058583356      0.2720000000      13.4764826070      0.8252685018      0.0000000000
0.7972118988        14689.0381817103      0.2740000000      13.4676976281      0.8349520415      0.0000000000
0.8059975796        13863.4008365501      0.2760000000      13.4591260508      0.8446649910      0.0000000000
0.8147980203        13089.3988799490      0.2780000000      13.4507585441      0.8544063174      0.0000000000
0.8236121828        12363.5167719885      0.2800000000      13.4425861888      0.8641749740      0.0000000000
0.8324390203        11682.4966746841      0.2820000000      13.4346002348      0.8739698995      0.0000000000
0.8412774794        11043.3189973384      0.2840000000      13.4267923925      0.8837900206      0.0000000000
0.8501265001        10443.1821246360      0.2860000000      13.4191545774      0.8936342517      0.0000000000
0.8589850178         9879.4858297080      0.2880000000      13.4116790384      0.9035014972      0.0000000000
0.8678519624         9349.8170135678      0.2900000000      13.4043582697      0.9133906504      0.0000000000
0.8767262606         8851.9351699442      0.2920000000      13.3971850189      0.9233005956      0.0000000000
0.8856068359         8383.7570660188      0.2940000000      13.3901522482      0.9332302085      0.0000000000
0.8944926098         7943.3485213119      0.2960000000      13.3832532478      0.9431783573      0.0000000000
0.9033825033         7528.9090768178      0.2980000000      13.3764815054      0.9531439041      0.0000000000
0.9122754361         7138.7653851311      0.3000000000      13.3698307080      0.9631257043      0.0000000000
0.9211703290         6771.3590935874      0.3020000000      13.3632948038      0.9731226090      0.0000000000
0.9300661031         6425.2410405369      0.3040000000      13.3568678974      0.9831334638      0.0000000000
0.9389616831         6099.0601997591      0.3060000000      13.3505443125      0.9931571134      0.0000000000
0.9478559937         5791.5589698464      0.3080000000      13.3443186164      1.0031923961      0.0000000000
0.9567479649         5501.5649222253      0.3100000000      13.3381854877      1.0132381513      0.0000000000
0.9656365309         5227.9849099817      0.3120000000      13.3321398585      1.0232932168      0.0000000000
0.9745206299         4969.7997928950      0.3140000000      13.3261767782      1.0333564297      0.0000000000
0.9833992063         4726.0583655128      0.3160000000      13.3202915301      1.0434266279      0.0000000000
0.9922712104         4495.8728584971      0.3180000000      13.3144794815      1.0535026506      0.0000000000
1.0011355990         4278.4148542660      0.3200000000      13.3087362431      1.0635833386      0.0000000000
1.0099913369         4072.9103032134      0.3220000000      13.3030575433      1.0736675356      0.0000000000
1.0188373963         3878.6362339901      0.3240000000      13.2974392293      1.0837540885      0.0000000000
1.0276727588         3694.9164893262      0.3260000000      13.2918773682      1.0938418489      0.0000000000
1.0364964144         3521.1195614628      0.3280000000      13.2863681067      1.1039296721      0.0000000000
1.0453073632         3356.6544961824      0.3300000000      13.2809077640      1.1140164195      0.0000000000
1.0541046156         3200.9684219867      0.3320000000      13.2754927530      1.1241009581      0.0000000000
1.0628871925         3053.5439987707      0.3340000000      13.2701196648      1.1341821616      0.0000000000
1.0716541263         2913.8968173179      0.3360000000      13.2647852044      1.1442589111      0.0000000000
1.0804044607         2781.5734895603      0.3380000000      13.2594861520      1.1543300950      0.0000000000
1.0891372516         2656.1490361860      0.3400000000      13.2542194585      1.1643946101      0.0000000000
1.0978515677         2537.2252804309      0.3420000000      13.2489821855      1.1744513624      0.0000000000
1.1065464901         2424.4290292633      0.3440000000      13.2437714666      1.1844992668      0.0000000000
1.1152211136         2317.4102758244      0.3460000000      13.2385845934      1.1945372482      0.0000000000
1.1238745464         2215.8408520807      0.3480000000      13.2334189362      1.2045642417      0.0000000000
1.1325059105         2119.4127013180      0.3500000000      13.2282719572      1.2145791932      0.0000000000
1.1411143426         2027.8366383117      0.3520000000      13.2231412427      1.2245810600      0.0000000000
1.1496989932         1940.8414519212      0.3540000000      13.2180244495      1.2345688105      0.0000000000
1.1582590282         1858.1721647651      0.3560000000      13.2129193545      1.2445414254      0.0000000000
1.1667936283         1779.5892966059      0.3580000000      13.2078238151      1.2544978978      0.0000000000
1.1753019896         1704.8679209441      0.3600000000      13.2027357881      1.2644372335      0.0000000000
1.1837833232         1633.7963544468      0.3620000000      13.1976532489      1.2743584510      0.0000000000
1.1922368563         1566.1758722188      0.3640000000      13.1925743546      1.2842605826      0.0000000000
1.2006618318         1501.8193147054      0.3660000000      13.1874972895      1.2941426740      0.0000000000
1.2090575155         1440.5507052556      0.3680000000      13.1824203229      1.3040037933      0.0000000000
1.2174231616         1382.2043730697      0.3700000000      13.1773417910      1.3138429900      0.0000000000
1.2257580817         1326.6244070588      0.3720000000      13.1722601199      1.3236593764      0.0000000000
1.2340615763         1273.6639381100      0.3740000000      13.1671737957      1.3334520476      0.0000000000
1.2423329692         1223.1846747948      0.3760000000      13.1620813947      1.3432201216      0.0000000000
1.2505716010         1175.0561842034      0.3780000000      13.1569815266      1.3529627315      0.0000000000
1.2587768279         1129.1556873338      0.3800000000      13.1518728809      1.3626790253      0.0000000000
1.2669480236         1085.3672927865      0.3820000000      13.1467542498      1.3723681669      0.0000000000
1.2750845775         1043.5818724578      0.3840000000      13.1416243899      1.3820293350      0.0000000000
1.2831858962         1003.6963501699      0.3860000000      13.1364822274      1.3916617248      0.0000000000
1.2912514025          965.6135093303      0.3880000000      13.1313266904      1.4012645469      0.0000000000
1.2992805357          929.2415792928      0.3900000000      13.1261567395      1.4108370276      0.0000000000
1.3072727517          894.4939172109      0.3920000000      13.1209714596      1.4203784095      0.0000000000
1.3152275228          861.2887306960      0.3940000000      13.1157699089      1.4298879509      0.0000000000
1.3231443377          829.5486960671      0.3960000000      13.1105512636      1.4393649265      0.0000000000
1.3310227013          799.2007960611      0.3980000000      13.1053147148      1.4488086269      0.0000000000
1.3388621348          770.1760143974      0.4000000000      13.1000594862      1.4582183588      0.0000000000
1.3466621755          742.4090850588      0.4020000000      13.0947848955      1.4675934452      0.0000000000
1.3544223768          715.8382551259      0.4040000000      13.0894902464      1.4769332252      0.0000000000
1.3621423079          690.4052066697      0.4060000000      13.0841749424      1.4862370542      0.0000000000
1.3698215537          666.0546571057      0.4080000000      13.0788383778      1.4955043034      0.0000000000
1.3774597152          642.7343059013      0.4100000000      13.0734800434      1.5047343606      0.0000000000
1.3850564083          620.3947164949      0.4120000000      13.0680994091      1.5139266290      0.0000000000
1.3926112648          598.9889853654      0.4140000000      13.0626960186      1.5230805284      0.0000000000
1.4001239314          578.4727033109      0.4160000000      13.0572694487      1.5321954944      0.0000000000
1.4075940702          558.8038275864      0.4180000000      13.0518193153      1.5412709782      0.0000000000
1.4150213578          539.9424697085      0.4200000000      13.0463452252      1.5503064470      0.0000000000
1.4224054859          521.8508689273      0.4220000000      13.0408468869      1.5593013839      0.0000000000
1.4297461604          504.4931617694      0.4240000000      13.0353239815      1.5682552872      0.0000000000
1.4370431019          487.8353911890      0.4260000000      13.0297762549      1.5771676710      0.0000000000
1.4442960449          471.8453160047      0.4280000000      13.0242034708      1.5860380647      0.0000000000
1.4515047382          456.4923262339      0.4300000000      13.0186054104      1.5948660130      0.0000000000
1.4586689441          441.7473791606      0.4320000000      13.0129819055      1.6036510758      0.0000000000
1.4657884387          427.5829172598      0.4340000000      13.0073327806      1.6123928278      0.0000000000
1.4728630114          413.9727480543      0.4360000000      13.0016579245      1.6210908589      0.0000000000
1.4798924649          400.8920022935      0.4380000000      12.9959572368      1.6297447737      0.0000000000
1.4868766147          388.3170548927      0.4400000000      12.9902306299      1.6383541912      0.0000000000
1.4938152890          376.2254552800      0.4420000000      12.9844780211      1.6469187447      0.0000000000
1.5007083290          364.5958404607      0.4440000000      12.9786993980      1.6554380823      0.0000000000
1.5075555878          353.4079206633      0.4460000000      12.9728947418      1.6639118659      0.0000000000
1.5143569307          342.6423924242      0.4480000000      12.9670640359      1.6723397713      0.0000000000
1.5211122350          332.2808796636      0.4500000000      12.9612073065      1.6807214881      0.0000000000
1.5278213897          322.3059265027      0.4520000000      12.9553245972      1.6890567196      0.0000000000
1.5344842952          312.7008773061      0.4540000000      12.9494159707      1.6973451827      0.0000000000
1.5411008631          303.4499158809      0.4560000000      12.9434814750      1.7055866072      0.0000000000
