# M(M_sol)                 Lambda          n_Bc(fm^-3)         R(km)            m_B(M_sol)        m_Bquar/M_B
0.1518859375     20414830.0639335401      0.1530000000      19.1535761169      0.1521071301      0.0000000000
0.1565632564     17333785.0671712868      0.1550000000      18.5554771249      0.1568516000      0.0000000000
0.1615165919     14703651.2908015326      0.1570000000      18.0055205708      0.1618800010      0.0000000000
0.1667521423     12462811.2040490787      0.1590000000      17.5002950857      0.1671992851      0.0000000000
0.1722755245     10557117.4015973881      0.1610000000      17.0365519333      0.1728158660      0.0000000000
0.1780918905      8939102.4784467686      0.1630000000      16.6112216382      0.1787357373      0.0000000000
0.1842056495      7567365.2144599603      0.1650000000      16.2213984479      0.1849641896      0.0000000000
0.1906210333      6405805.9949872755      0.1670000000      15.8643784641      0.1915063840      0.0000000000
0.1973414661      5423242.5636186535      0.1690000000      15.5376170234      0.1983667107      0.0000000000
0.2043699276      4592745.5470535038      0.1710000000      15.2387472734      0.2055491558      0.0000000000
0.2117089747      3891183.2466863338      0.1730000000      14.9655752773      0.2130573234      0.0000000000
0.2193605770      3298755.9491257030      0.1750000000      14.7160640732      0.2208942645      0.0000000000
0.2273263172      2798564.5936809159      0.1770000000      14.4883340928      0.2290626804      0.0000000000
0.2356072442      2376243.9319953620      0.1790000000      14.2806474260      0.2375647700      0.0000000000
0.2442039423      2019598.2973382045      0.1810000000      14.0914012776      0.2464022982      0.0000000000
0.2531165553      1718310.0397802489      0.1830000000      13.9191220448      0.2555766172      0.0000000000
0.2623447655      1463660.5673765827      0.1850000000      13.7624528739      0.2650886430      0.0000000000
0.2718878146      1248292.9022643983      0.1870000000      13.6201466175      0.2749388729      0.0000000000
0.2817445063      1066010.0369970074      0.1890000000      13.4910572509      0.2851273857      0.0000000000
0.2919132145       911596.8248236073      0.1910000000      13.3741317812      0.2956538457      0.0000000000
0.3023918429       780669.0805257071      0.1930000000      13.2683988390      0.3065174584      0.0000000000
0.3131780091       669532.2861391719      0.1950000000      13.1729765743      0.3177171560      0.0000000000
0.3242687790       575093.6529766881      0.1970000000      13.0870428015      0.3292513196      0.0000000000
0.3356608712       494747.4349720965      0.1990000000      13.0098456758      0.3411179863      0.0000000000
0.3473506636       426304.7392801021      0.2010000000      12.9406978499      0.3533148520      0.0000000000
0.3593341030       367924.6165023217      0.2030000000      12.8789626247      0.3658391739      0.0000000000
0.3716068055       318060.6687427668      0.2050000000      12.8240568685      0.3786878697      0.0000000000
0.3841639807       275412.1516821772      0.2070000000      12.7754392787      0.3918574354      0.0000000000
0.3970006046       238879.9842647885      0.2090000000      12.7326202167      0.4053441204      0.0000000000
0.4101111863       207543.0394526769      0.2110000000      12.6951368648      0.4191436799      0.0000000000
0.4234899880       180622.6960832880      0.2130000000      12.6625678154      0.4332516006      0.0000000000
0.4371309906       157461.0672661865      0.2150000000      12.6345256288      0.4476630598      0.0000000000
0.4510278762       137502.6545163473      0.2170000000      12.6106514978      0.4623729039      0.0000000000
0.4651740470       120278.0095744199      0.2190000000      12.5906130469      0.4773756628      0.0000000000
0.4795626465       105389.7443424276      0.2210000000      12.5741024961      0.4926655690      0.0000000000
0.4941865781        92501.0417429742      0.2230000000      12.5608349107      0.5082365719      0.0000000000
0.5090385472        81325.7408599576      0.2250000000      12.5505483073      0.5240823795      0.0000000000
0.5241110943        71619.9390965328      0.2270000000      12.5430034929      0.5401964890      0.0000000000
0.5393964139        63178.6294452709      0.2290000000      12.5379656381      0.5565719912      0.0000000000
0.5548867146        55824.7132291011      0.2310000000      12.5352319242      0.5732019486      0.0000000000
0.5705739751        49408.0789498486      0.2330000000      12.5346081626      0.5900791336      0.0000000000
0.5864499886        43800.9112541534      0.2350000000      12.5359097941      0.6071960714      0.0000000000
0.6025065308        38893.1249312761      0.2370000000      12.5389738423      0.6245452170      0.0000000000
0.6187351918        34591.0933971879      0.2390000000      12.5436418610      0.6421187718      0.0000000000
0.6351275276        30814.0944033996      0.2410000000      12.5497708228      0.6599088438      0.0000000000
0.6516750271        27492.8702802129      0.2430000000      12.5572279677      0.6779074097      0.0000000000
0.6683691223        24567.9013384018      0.2450000000      12.5658893704      0.6961063232      0.0000000000
0.6852011439        21988.3655463559      0.2470000000      12.5756341789      0.7144972650      0.0000000000
0.7021625039        19709.8878259594      0.2490000000      12.5863577903      0.7330719379      0.0000000000
0.7192445600        17694.2522131724      0.2510000000      12.5979605015      0.7518219191      0.0000000000
0.7364386800        15908.6063874818      0.2530000000      12.6103478363      0.7707387283      0.0000000000
0.7537362526        14324.4466912161      0.2550000000      12.6234319963      0.7898138375      0.0000000000
0.7711287629        12916.8056738087      0.2570000000      12.6371365282      0.8090387532      0.0000000000
0.7886076242        11664.5195965543      0.2590000000      12.6513793098      0.8284048316      0.0000000000
0.8061644689        10548.5893538799      0.2610000000      12.6660975033      0.8479035957      0.0000000000
0.8237908818         9552.9473288693      0.2630000000      12.6812219328      0.8675264434      0.0000000000
0.8414786200         8663.2599537694      0.2650000000      12.6966955898      0.8872648885      0.0000000000
0.8592194760         7867.2624707955      0.2670000000      12.7124599516      0.9071104099      0.0000000000
0.8770053845         7154.0956093862      0.2690000000      12.7284634373      0.9270545697      0.0000000000
0.8948283819         6514.3098818408      0.2710000000      12.7446566567      0.9470889687      0.0000000000
0.9126806787         5939.5334406721      0.2730000000      12.7609980145      0.9672053275      0.0000000000
0.9305545513         5422.5435926817      0.2750000000      12.7774426009      0.9873953670      0.0000000000
0.9484424616         4956.9207993666      0.2770000000      12.7939523740      1.0076509420      0.0000000000
0.9663370358         4536.9988557981      0.2790000000      12.8104936104      1.0279640195      0.0000000000
0.9842310203         4157.8376364631      0.2810000000      12.8270315524      1.0483266296      0.0000000000
1.0021173428         3815.0598995044      0.2830000000      12.8435357875      1.0687309364      0.0000000000
1.0199891126         3504.7636398786      0.2850000000      12.8599795507      1.0891692388      0.0000000000
1.0378395937         3223.5424764064      0.2870000000      12.8763364560      1.1096339424      0.0000000000
1.0556622090         2968.3945230722      0.2890000000      12.8925804148      1.1301175662      0.0000000000
1.0734506015         2736.6095354012      0.2910000000      12.9086911709      1.1506128129      0.0000000000
1.0911985902         2525.7846187246      0.2930000000      12.9246495794      1.1711125215      0.0000000000
1.1089001476         2333.8349973118      0.2950000000      12.9404349430      1.1916096436      0.0000000000
1.1265494558         2158.8727469318      0.2970000000      12.9560302937      1.2120973089      0.0000000000
1.1441409063         1999.1905829716      0.2990000000      12.9714222780      1.2325688280      0.0000000000
1.1616690555         1853.3024771604      0.3010000000      12.9865963651      1.2530176432      0.0000000000
1.1791286284         1719.8944740124      0.3030000000      13.0015369062      1.2734373349      0.0000000000
1.1965145946         1597.7460236525      0.3050000000      13.0162351856      1.2938217115      0.0000000000
1.2138220871         1485.7904825425      0.3070000000      13.0306807187      1.3141647182      0.0000000000
1.2310464084         1383.0839286910      0.3090000000      13.0448618850      1.3344604466      0.0000000000
1.2481830916         1288.7538225907      0.3110000000      13.0587725501      1.3547032072      0.0000000000
1.2652278251         1202.0374425727      0.3130000000      13.0724039172      1.3748874452      0.0000000000
1.2821765105         1122.2290585888      0.3150000000      13.0857510914      1.3950078100      0.0000000000
1.2990252152         1048.7104826028      0.3170000000      13.0988079267      1.4150591023      0.0000000000
1.3157701782          980.9282390264      0.3190000000      13.1115678253      1.4350362835      0.0000000000
1.3324078333          918.3755328866      0.3210000000      13.1240265657      1.4549345047      0.0000000000
1.3489348120          860.5833304006      0.3230000000      13.1361828476      1.4747491131      0.0000000000
1.3653478905          807.1445833474      0.3250000000      13.1480326189      1.4944755925      0.0000000000
1.3816440167          757.6913695110      0.3270000000      13.1595725786      1.5141095961      0.0000000000
1.3978203247          711.8805370006      0.3290000000      13.1708017815      1.5336469671      0.0000000000
1.4138741132          669.4028117646      0.3310000000      13.1817197814      1.5530837150      0.0000000000
1.4298028159          629.9897069818      0.3330000000      13.1923235322      1.5724159831      0.0000000000
1.4456040568          593.3834160476      0.3350000000      13.2026140996      1.5916401156      0.0000000000
1.4612755978          559.3563573324      0.3370000000      13.2125910191      1.6107525985      0.0000000000
1.4768153591          527.6993860798      0.3390000000      13.2222550581      1.6297500851      0.0000000000
1.4922213917          498.2276074563      0.3410000000      13.2316053637      1.6486293659      0.0000000000
1.5074919226          470.7610681953      0.3430000000      13.2406453547      1.6673874243      0.0000000000
1.5226252838          445.1479246382      0.3450000000      13.2493745325      1.6860213534      0.0000000000
1.5376199714          421.2396484302      0.3470000000      13.2577962092      1.7045284295      0.0000000000
1.5524745819          398.9108142343      0.3490000000      13.2659101110      1.7229060368      0.0000000000
1.5671878729          378.0369550159      0.3510000000      13.2737202586      1.7411517420      0.0000000000
1.5817586927          358.5124991234      0.3530000000      13.2812268275      1.7592632122      0.0000000000
1.5961860386          340.2341381041      0.3550000000      13.2884338325      1.7772382855      0.0000000000
1.6104690142          323.1085476344      0.3570000000      13.2953442672      1.7950749228      0.0000000000
1.6246068261          307.0536619335      0.3590000000      13.3019601794      1.8127712036      0.0000000000
1.6385987978          291.9907905614      0.3610000000      13.3082848590      1.8303253455      0.0000000000
1.6524443503          277.8498448822      0.3630000000      13.3143208728      1.8477356815      0.0000000000
1.6661430113          264.5647901287      0.3650000000      13.3200716816      1.8650006726      0.0000000000
1.6796944051          252.0751179813      0.3670000000      13.3255409080      1.8821188971      0.0000000000
1.6930982478          240.3250116414      0.3690000000      13.3307320811      1.8990890460      0.0000000000
1.7063543451          229.2631095083      0.3710000000      13.3356488608      1.9159099211      0.0000000000
1.7194625841          218.8432909451      0.3730000000      13.3402944102      1.9325804264      0.0000000000
1.7324229405          209.0212350136      0.3750000000      13.3446728000      1.9490995781      0.0000000000
1.7452354585          199.7580549104      0.3770000000      13.3487867821      1.9654664805      0.0000000000
1.7579002715          191.0155101831      0.3790000000      13.3526409864      1.9816803529      0.0000000000
1.7704175792          182.7591735432      0.3810000000      13.3562393537      1.9977405022      0.0000000000
1.7827876491          174.9572777545      0.3830000000      13.3595856962      2.0136463256      0.0000000000
1.7950108080          167.5815348973      0.3850000000      13.3626829233      2.0293973004      0.0000000000
1.8070874617          160.6029520065      0.3870000000      13.3655363399      2.0449930105      0.0000000000
1.8190180583          153.9978141401      0.3890000000      13.3681487356      2.0604330999      0.0000000000
1.8308031181          147.7410782752      0.3910000000      13.3705251604      2.0757173119      0.0000000000
1.8424431980          141.8125460084      0.3930000000      13.3726682337      2.0908454448      0.0000000000
1.8539389255          136.1903362544      0.3950000000      13.3745833026      2.1058173948      0.0000000000
1.8652909567          130.8572561935      0.3970000000      13.3762729434      2.1206331047      0.0000000000
1.8765000127          125.7942692157      0.3990000000      13.3777424328      2.1352926090      0.0000000000
1.8875668387          120.9863924555      0.4010000000      13.3789943129      2.1497959842      0.0000000000
1.8984922306          116.4183989940      0.4030000000      13.3800324864      2.1641433817      0.0000000000
1.9092770338          112.0745768756      0.4050000000      13.3808625454      2.1783350275      0.0000000000
1.9199221070          107.9433543317      0.4070000000      13.3814865930      2.1923711761      0.0000000000
1.9304283570          104.0119470762      0.4090000000      13.3819089253      2.2062521556      0.0000000000
1.9407967238          100.2683411142      0.4110000000      13.3821339084      2.2199783486      0.0000000000
1.9510281705           96.7020717923      0.4130000000      13.3821649949      2.2335501801      0.0000000000
1.9611236881           93.3034897842      0.4150000000      13.3820055622      2.2469681232      0.0000000000
1.9710842966           90.0629267576      0.4170000000      13.3816594439      2.2602327016      0.0000000000
1.9809110396           86.9715795132      0.4190000000      13.3811304090      2.2733444821      0.0000000000
1.9906049820           84.0212512075      0.4210000000      13.3804220820      2.2863040725      0.0000000000
2.0001672106           81.2041339523      0.4230000000      13.3795382228      2.2991121221      0.0000000000
2.0095988237           78.5135372280      0.4250000000      13.3784814133      2.3117693083      0.0000000000
2.0189009542           75.9415711157      0.4270000000      13.3772569683      2.3242763673      0.0000000000
2.0280747288           73.4829118102      0.4290000000      13.3758666701      2.3366340403      0.0000000000
2.0371213038           71.1311916568      0.4310000000      13.3743146999      2.3488431214      0.0000000000
2.0460418428           68.8808122687      0.4330000000      13.3726043158      2.3609044270      0.0000000000
2.0548375226           66.7264913825      0.4350000000      13.3707390009      2.3728188050      0.0000000000
2.0635095237           64.6636649976      0.4370000000      13.3687211548      2.3845871219      0.0000000000
2.0720590521           62.6867781915      0.4390000000      13.3665557773      2.3962102908      0.0000000000
2.0804873000           60.7923301199      0.4410000000      13.3642443310      2.4076892209      0.0000000000
2.0887954823           58.9758322747      0.4430000000      13.3617907955      2.4190248644      0.0000000000
2.0969848132           57.2334018859      0.4450000000      13.3591981330      2.4302181863      0.0000000000
2.1050565126           55.5614061185      0.4470000000      13.3564694011      2.4412701729      0.0000000000
2.1130118045           53.9563679174      0.4490000000      13.3536076877      2.4521818291      0.0000000000
2.1208519132           52.4151181525      0.4510000000      13.3506155871      2.4629541737      0.0000000000
2.1285780681           50.9345500167      0.4530000000      13.3474962939      2.4735882455      0.0000000000
2.1361915020           49.5114697713      0.4550000000      13.3442532754      2.4840851012      0.0000000000
2.1436934369           48.1436353528      0.4570000000      13.3408880613      2.4944457960      0.0000000000
2.1510851069           46.8281168690      0.4590000000      13.3374043874      2.5046714143      0.0000000000
2.1583677357           45.5626806735      0.4610000000      13.3338043266      2.5147630400      0.0000000000
2.1655425518           44.3448573350      0.4630000000      13.3300910234      2.5247217755      0.0000000000
2.1726107798           43.1723438937      0.4650000000      13.3262674174      2.5345487310      0.0000000000
2.1795736346           42.0433706537      0.4670000000      13.3223352228      2.5442450162      0.0000000000
2.1864323362           40.9557308877      0.4690000000      13.3182977084      2.5538117603      0.0000000000
2.1931880968           39.9075474915      0.4710000000      13.3141574389      2.5632500938      0.0000000000
2.1998421190           38.8972820312      0.4730000000      13.3099161230      2.5725611469      0.0000000000
2.2063956077           37.9231047123      0.4750000000      13.3055767181      2.5817460646      0.0000000000
2.2128497559           36.9835757310      0.4770000000      13.3011410595      2.5908059878      0.0000000000
2.2192057576           36.0769448380      0.4790000000      13.2966123273      2.5997420703      0.0000000000
2.2254647946           35.2018776540      0.4810000000      13.2919925375      2.6085554613      0.0000000000
2.2316280396           34.3571929793      0.4830000000      13.2872832428      2.6172473086      0.0000000000
2.2376966669           33.5413249958      0.4850000000      13.2824876760      2.6258187738      0.0000000000
2.2436718333           32.7532643899      0.4870000000      13.2776071977      2.6342710056      0.0000000000
2.2495546939           31.9917551048      0.4890000000      13.2726442427      2.6426051613      0.0000000000
2.2553463939           31.2557070084      0.4910000000      13.2676008996      2.6508223955      0.0000000000
2.2610480698           30.5440699675      0.4930000000      13.2624791819      2.6589238617      0.0000000000
2.2666608504           29.8557961300      0.4950000000      13.2572812893      2.6669107131      0.0000000000
2.2721858507           29.1901035210      0.4970000000      13.2520084080      2.6747840944      0.0000000000
2.2776241860           28.5458392164      0.4990000000      13.2466634660      2.6825451607      0.0000000000
2.2829769544           27.9222699268      0.5010000000      13.2412479626      2.6901950539      0.0000000000
2.2882452450           27.3186047329      0.5030000000      13.2357633928      2.6977349127      0.0000000000
2.2934301402           26.7340795086      0.5050000000      13.2302117095      2.7051658769      0.0000000000
2.2985327156           26.1676907472      0.5070000000      13.2245955786      2.7124890857      0.0000000000
2.3035540283           25.6189763076      0.5090000000      13.2189157976      2.7197056628      0.0000000000
2.3084951293           25.0872430150      0.5110000000      13.2131740146      2.7268167322      0.0000000000
