# M(M_sol)                 Lambda          n_Bc(fm^-3)         R(km)            m_B(M_sol)        m_Bquar/M_B
0.1567218212     49511410.8051356748      0.0760000000      24.1385548005      0.1570491400      0.0000000000
0.1648058244     39922978.5003224686      0.0780000000      23.0443046361      0.1652582532      0.0000000000
0.1728428543     32678015.9715010226      0.0800000000      22.1569093143      0.1734287344      0.0000000000
0.1808361388     27074594.3973886669      0.0820000000      21.4228981315      0.1815635530      0.0000000000
0.1887898961     22659532.8589354753      0.0840000000      20.8056768440      0.1896667331      0.0000000000
0.1967090283     19127276.4087522216      0.0860000000      20.2793665726      0.1977430393      0.0000000000
0.2045989138     16264742.2438929584      0.0880000000      19.8251581666      0.2057977626      0.0000000000
0.2124652605     13919253.8177599385      0.0900000000      19.4290607162      0.2138365688      0.0000000000
0.2203140017     11978935.3883695360      0.0920000000      19.0804566770      0.2218653900      0.0000000000
0.2281512228     10360247.7011943776      0.0940000000      18.7711495002      0.2298903486      0.0000000000
0.2359830957      8999783.7702384777      0.0960000000      18.4947137037      0.2379176888      0.0000000000
0.2438158389      7848729.4153775414      0.0980000000      18.2460449501      0.2459537340      0.0000000000
0.2516556797      6869030.0993440347      0.1000000000      18.0210398706      0.2540048474      0.0000000000
0.2595088290      6030686.0981421145      0.1020000000      17.8163643481      0.2620774054      0.0000000000
0.2673814523      5309807.0889741573      0.1040000000      17.6292831792      0.2701777660      0.0000000000
0.2752796583      4687193.8324771775      0.1060000000      17.4575332167      0.2783122574      0.0000000000
0.2832094775      4147288.5372035187      0.1080000000      17.2992268545      0.2864871545      0.0000000000
0.2911768554      3677387.1150227641      0.1100000000      17.1527783440      0.2947086720      0.0000000000
0.2991876386      3267042.8104502005      0.1120000000      17.0168469825      0.3029829484      0.0000000000
0.3071215108      2912852.6731944550      0.1140000000      16.8921922145      0.3111856486      0.0000000000
0.3149405380      2607202.7740857378      0.1160000000      16.7780089215      0.3192772646      0.0000000000
0.3227205845      2339786.4400419192      0.1180000000      16.6720426137      0.3273360784      0.0000000000
0.3304865228      2104350.9863263397      0.1200000000      16.5731165994      0.3353877764      0.0000000000
0.3382543317      1896110.8060075052      0.1220000000      16.4803536174      0.3434489083      0.0000000000
0.3460363447      1711226.7263682270      0.1240000000      16.3930510620      0.3515322989      0.0000000000
0.3538429423      1546548.9006826852      0.1260000000      16.3106284979      0.3596487899      0.0000000000
0.3616832920      1399456.0756093261      0.1280000000      16.2325980327      0.3678080024      0.0000000000
0.3695657214      1267744.0666609120      0.1300000000      16.1585437984      0.3760187190      0.0000000000
0.3774979362      1149544.9872631694      0.1320000000      16.0881097385      0.3842891079      0.0000000000
0.3854871499      1043263.8610317296      0.1340000000      16.0209877793      0.3926268559      0.0000000000
0.3935401697       947531.4527004277      0.1360000000      15.9569107205      0.4010392565      0.0000000000
0.4016634497       861165.3973649869      0.1380000000      15.8956452284      0.4095332635      0.0000000000
0.4098631386       783140.0168050355      0.1400000000      15.8369872148      0.4181155399      0.0000000000
0.4181451011       712561.4326398344      0.1420000000      15.7807572753      0.4267924802      0.0000000000
0.4265149395       648647.5589183167      0.1440000000      15.7267972028      0.4355702310      0.0000000000
0.4349780106       590711.3839913412      0.1460000000      15.6749671084      0.4444547092      0.0000000000
0.4435394349       538147.3526704389      0.1480000000      15.6251430238      0.4534516110      0.0000000000
0.4522041013       490419.9343941383      0.1500000000      15.5772145871      0.4625664152      0.0000000000
0.4609766766       447054.0884851157      0.1520000000      15.5310834174      0.4718043941      0.0000000000
0.4698616077       407627.1856540006      0.1540000000      15.4866615201      0.4811706147      0.0000000000
0.4788631190       371762.2815895374      0.1560000000      15.4438699351      0.4906699356      0.0000000000
0.4879852185       339122.3256987992      0.1580000000      15.4026375288      0.5003070126      0.0000000000
0.4972316932       309405.2805198918      0.1600000000      15.3629001089      0.5100862942      0.0000000000
0.5066061094       282339.8795518536      0.1620000000      15.3245992921      0.5200120204      0.0000000000
0.5161118203       257682.0328874151      0.1640000000      15.2876820775      0.5300882309      0.0000000000
0.5257519324       235211.7975338268      0.1660000000      15.2520999094      0.5403187288      0.0000000000
0.5355293460       214730.5619283571      0.1680000000      15.2178082286      0.5507071222      0.0000000000
0.5454467274       196058.7542708752      0.1700000000      15.1847657397      0.5612567949      0.0000000000
0.5555065094       179033.8332036673      0.1720000000      15.1529342571      0.5719709055      0.0000000000
0.5657108903       163508.4657821523      0.1740000000      15.1222779056      0.5828523861      0.0000000000
0.5760618347       149348.9913457441      0.1760000000      15.0927632461      0.5939039413      0.0000000000
0.5865610647       136434.0055274594      0.1780000000      15.0643584692      0.6051280388      0.0000000000
0.5972100616       124653.1935213240      0.1800000000      15.0370334498      0.6165269093      0.0000000000
0.6080100666       113906.2037901052      0.1820000000      15.0107594644      0.6281025469      0.0000000000
0.6189620723       104101.7144720787      0.1840000000      14.9855088031      0.6398566979      0.0000000000
0.6300668262        95156.5683337444      0.1860000000      14.9612546548      0.6517908640      0.0000000000
0.6413248307        86995.0142970378      0.1880000000      14.9379711216      0.6639063003      0.0000000000
0.6527363542        79548.0189370583      0.1900000000      14.9156328016      0.6762040262      0.0000000000
0.6643013698        72752.6866028300      0.1920000000      14.8942150363      0.6886847575      0.0000000000
0.6760196361        66551.6421304548      0.1940000000      14.8736934137      0.7013489918      0.0000000000
0.6878907130        60892.5420073759      0.1960000000      14.8540437862      0.7141970245      0.0000000000
0.6999138209        55727.7039890168      0.1980000000      14.8352425841      0.7272287940      0.0000000000
0.7120879989        51013.5967283244      0.2000000000      14.8172660838      0.7404440513      0.0000000000
0.7244120297        46710.5298314775      0.2020000000      14.8000909821      0.7538422768      0.0000000000
0.7368844594        42782.2963717211      0.2040000000      14.7836940402      0.7674226997      0.0000000000
0.7495035978        39195.8722471172      0.2060000000      14.7680520960      0.7811842966      0.0000000000
0.7622675270        35921.1285181462      0.2080000000      14.7531420696      0.7951257981      0.0000000000
0.7751741006        32930.6014395586      0.2100000000      14.7389410769      0.8092456859      0.0000000000
0.7882209523        30199.2315221014      0.2120000000      14.7254261718      0.8235422007      0.0000000000
0.8014055008        27704.1753638522      0.2140000000      14.7125745907      0.8380133445      0.0000000000
0.8147249528        25424.6007335005      0.2160000000      14.7003635547      0.8526568821      0.0000000000
0.8281763138        23341.5151165265      0.2180000000      14.6887704338      0.8674703504      0.0000000000
0.8417563930        21437.6043927507      0.2200000000      14.6777727592      0.8824510615      0.0000000000
0.8554618087        19697.0859664519      0.2220000000      14.6673480676      0.8975961068      0.0000000000
0.8692889989        18105.5742970985      0.2240000000      14.6574741377      0.9129023659      0.0000000000
0.8832342262        16649.9603756056      0.2260000000      14.6481288104      0.9283665096      0.0000000000
0.8972935896        15318.2970483376      0.2280000000      14.6392902270      0.9439850116      0.0000000000
0.9114630303        14099.6955936070      0.2300000000      14.6309365713      0.9597541515      0.0000000000
0.9257383320        12984.2389449843      0.2320000000      14.6230464219      0.9756700138      0.0000000000
0.9401151686        11962.8868876710      0.2340000000      14.6155984721      0.9917285388      0.0000000000
0.9545890547        11027.4056867352      0.2360000000      14.6085716739      1.0079254647      0.0000000000
0.9691553967        10170.2930933391      0.2380000000      14.6019454224      1.0242563832      0.0000000000
0.9838094879         9384.7142989653      0.2400000000      14.5956992272      1.0407167316      0.0000000000
0.9985465233         8664.4421038126      0.2420000000      14.5898130724      1.0573018082      0.0000000000
1.0133616047         8003.8035026027      0.2440000000      14.5842671386      1.0740067753      0.0000000000
1.0282497558         7397.6293543614      0.2460000000      14.5790421418      1.0908266750      0.0000000000
1.0432059276         6841.2096929542      0.2480000000      14.5741190745      1.1077564336      0.0000000000
1.0582250100         6330.2535547766      0.2500000000      14.5694793160      1.1247908730      0.0000000000
1.0733018424         5860.8498081830      0.2520000000      14.5651047248      1.1419247211      0.0000000000
1.0884312215         5429.4346650713      0.2540000000      14.5609775241      1.1591526199      0.0000000000
1.1036079140         5032.7592027575      0.2560000000      14.5570804243      1.1764691380      0.0000000000
1.1188266618         4667.8621898469      0.2580000000      14.5533965292      1.1938687756      0.0000000000
1.1340821950         4332.0436340880      0.2600000000      14.5499094370      1.2113459785      0.0000000000
1.1493692404         4022.8415072588      0.2620000000      14.5466031918      1.2288951466      0.0000000000
1.1646825286         3738.0104704041      0.2640000000      14.5434623661      1.2465106420      0.0000000000
1.1800168044         3475.5021846925      0.2660000000      14.5404719164      1.2641867989      0.0000000000
1.1953668339         3233.4480391982      0.2680000000      14.5376173485      1.2819179326      0.0000000000
1.2107274146         3010.1423101934      0.2700000000      14.5348845773      1.2996983498      0.0000000000
1.2260933818         2804.0283850408      0.2720000000      14.5322601363      1.3175223561      0.0000000000
1.2414596153         2613.6849976794      0.2740000000      14.5297309100      1.3353842634      0.0000000000
1.2568210489         2437.8139104599      0.2760000000      14.5272843002      1.3532784012      0.0000000000
1.2721726762         2275.2294414540      0.2780000000      14.5249082606      1.3711991227      0.0000000000
1.2875095557         2124.8480196611      0.2800000000      14.5225911379      1.3891408115      0.0000000000
1.3028268196         1985.6792649240      0.2820000000      14.5203217965      1.4070978916      0.0000000000
1.3181196820         1856.8174902127      0.2840000000      14.5180895706      1.4250648380      0.0000000000
1.3333834284         1737.4345529583      0.2860000000      14.5158842371      1.4430361643      0.0000000000
1.3486134459         1626.7725867285      0.2880000000      14.5136960801      1.4610064590      0.0000000000
1.3638052102         1524.1380518530      0.2900000000      14.5115157922      1.4789703709      0.0000000000
1.3789542955         1428.8959847488      0.2920000000      14.5093345221      1.4969226212      0.0000000000
1.3940563778         1340.4646476439      0.2940000000      14.5071438584      1.5148580084      0.0000000000
1.4091072387         1258.3112699263      0.2960000000      14.5049358175      1.5327714140      0.0000000000
1.4241027683         1181.9473998309      0.2980000000      14.5027028755      1.5506578069      0.0000000000
1.4390389683         1110.9252137294      0.3000000000      14.5004378251      1.5685122475      0.0000000000
1.4539119558         1044.8338198977      0.3020000000      14.4981339631      1.5863298940      0.0000000000
1.4687179628          983.2963386963      0.3040000000      14.4957848979      1.6041060029      0.0000000000
1.4834533411          925.9666006041      0.3060000000      14.4933846856      1.6218359361      0.0000000000
1.4981145619          872.5267830104      0.3080000000      14.4909276981      1.6395151615      0.0000000000
1.5126982179          822.6848545776      0.3100000000      14.4884086907      1.6571392570      0.0000000000
1.5272010239          776.1723052281      0.3120000000      14.4858227705      1.6747039129      0.0000000000
1.5416198178          732.7423321468      0.3140000000      14.4831653610      1.6922049341      0.0000000000
1.5559515608          692.1678002618      0.3160000000      14.4804322390      1.7096382418      0.0000000000
1.5701933376          654.2396981781      0.3180000000      14.4776194730      1.7269998758      0.0000000000
1.5843423566          618.7655049070      0.3200000000      14.4747234606      1.7442859956      0.0000000000
1.5983959487          585.5679364896      0.3220000000      14.4717408603      1.7614928806      0.0000000000
1.6123515678          554.4835501009      0.3240000000      14.4686686428      1.7786169326      0.0000000000
1.6262067893          525.3616732419      0.3260000000      14.4655040486      1.7956546752      0.0000000000
1.6399593093          498.0633000408      0.3280000000      14.4622445393      1.8126027540      0.0000000000
1.6536069434          472.4601153955      0.3300000000      14.4588878892      1.8294579380      0.0000000000
1.6671476257          448.4337029403      0.3320000000      14.4554320815      1.8462171179      0.0000000000
1.6805794066          425.8745821693      0.3340000000      14.4518753040      1.8628773070      0.0000000000
1.6939004517          404.6816691545      0.3360000000      14.4482160067      1.8794356396      0.0000000000
1.7071090397          384.7614419208      0.3380000000      14.4444528220      1.8958893713      0.0000000000
1.7202035611          366.0273802892      0.3400000000      14.4405846014      1.9122358780      0.0000000000
1.7331825149          348.3994414023      0.3420000000      14.4366103692      1.9284726536      0.0000000000
1.7460445078          331.8034830999      0.3440000000      14.4325293543      1.9445973105      0.0000000000
1.7587882511          316.1708367836      0.3460000000      14.4283409266      1.9606075771      0.0000000000
1.7714125590          301.4378456275      0.3480000000      14.4240446497      1.9765012969      0.0000000000
1.7839163457          287.5454922748      0.3500000000      14.4196402271      1.9922764263      0.0000000000
1.7962986231          274.4390187249      0.3520000000      14.4151275174      2.0079310339      0.0000000000
1.8085584988          262.0676103469      0.3540000000      14.4105065041      2.0234632976      0.0000000000
1.8206951721          250.3840744092      0.3560000000      14.4057773106      2.0388715026      0.0000000000
1.8327079336          239.3445678143      0.3580000000      14.4009401885      2.0541540408      0.0000000000
1.8445961609          228.9083509429      0.3600000000      14.3959954995      2.0693094076      0.0000000000
1.8563593168          219.0375050314      0.3620000000      14.3909437115      2.0843362000      0.0000000000
1.8679969462          209.6968034030      0.3640000000      14.3857854073      2.0992331143      0.0000000000
1.8795086738          200.8534199938      0.3660000000      14.3805212625      2.1139989441      0.0000000000
1.8908942012          192.4768029844      0.3680000000      14.3751520345      2.1286325777      0.0000000000
1.9021533048          184.5384700831      0.3700000000      14.3696785675      2.1431329966      0.0000000000
1.9132858324          177.0119028965      0.3720000000      14.3641017790      2.1574992717      0.0000000000
1.9242917012          169.8723449891      0.3740000000      14.3584226796      2.1717305622      0.0000000000
1.9351708950          163.0967154833      0.3760000000      14.3526423225      2.1858261127      0.0000000000
1.9459234617          156.6634667458      0.3780000000      14.3467618393      2.1997852509      0.0000000000
1.9565495107          150.5524720000      0.3800000000      14.3407824097      2.2136073852      0.0000000000
1.9670492110          144.7449353799      0.3820000000      14.3347052821      2.2272920024      0.0000000000
1.9774227873          139.2232814410      0.3840000000      14.3285317058      2.2408386645      0.0000000000
1.9876705193          133.9710854520      0.3860000000      14.3222630431      2.2542470079      0.0000000000
1.9977927385          128.9729692990      0.3880000000      14.3159006569      2.2675167398      0.0000000000
2.0077898255          124.2145492373      0.3900000000      14.3094459393      2.2806476359      0.0000000000
2.0176622086          119.6823578536      0.3920000000      14.3029003332      2.2936395386      0.0000000000
2.0274103611          115.3637730209      0.3940000000      14.2962653097      2.3064923544      0.0000000000
2.0370347989          111.2469665395      0.3960000000      14.2895423438      2.3192060515      0.0000000000
2.0465360789          107.3208477792      0.3980000000      14.2827329487      2.3317806578      0.0000000000
2.0559147967          103.5750212882      0.4000000000      14.2758386697      2.3442162586      0.0000000000
2.0651715844           99.9997233779      0.4020000000      14.2688610610      2.3565129945      0.0000000000
2.0743071088           96.5857878170      0.4040000000      14.2618016577      2.3686710588      0.0000000000
2.0833220696           93.3246118492      0.4060000000      14.2546620620      2.3806906960      0.0000000000
2.0922171974           90.2081062807      0.4080000000      14.2474438475      2.3925721993      0.0000000000
2.1009932517           87.2286699216      0.4100000000      14.2401486048      2.4043159088      0.0000000000
2.1096510196           84.3791516697      0.4120000000      14.2327779244      2.4159222095      0.0000000000
2.1181913138           81.6528283345      0.4140000000      14.2253334109      2.4273915289      0.0000000000
2.1266149710           79.0433661104      0.4160000000      14.2178166667      2.4387243361      0.0000000000
2.1349228502           76.5448062189      0.4180000000      14.2102292723      2.4499211386      0.0000000000
2.1431158316           74.1515336524      0.4200000000      14.2025728358      2.4609824819      0.0000000000
2.1511948146           71.8582558329      0.4220000000      14.1948489554      2.4719089466      0.0000000000
2.1591607182           69.6599852196      0.4240000000      14.1870591964      2.4827011493      0.0000000000
2.1670144716           67.5520195937      0.4260000000      14.1792051632      2.4933597300      0.0000000000
2.1747570288           65.5299151418      0.4280000000      14.1712883951      2.5038853723      0.0000000000
2.1823893517           63.5894872429      0.4300000000      14.1633104838      2.5142787804      0.0000000000
2.1899124163           61.7267765182      0.4320000000      14.1552729609      2.5245406875      0.0000000000
2.1973272102           59.9380479358      0.4340000000      14.1471773787      2.5346718527      0.0000000000
