# M(M_sol)                 Lambda          n_Bc(fm^-3)         R(km)            m_B(M_sol)        m_Bquar/M_B
0.1551179248     49664139.7534393892      0.0800000000      24.1664905482      0.1554304829      0.0000000000
0.1628822535     39936789.0747438595      0.0820000000      23.0493232402      0.1633129587      0.0000000000
0.1707079753     32510831.3305722140      0.0840000000      22.1298098729      0.1712661722      0.0000000000
0.1785891838     26736614.1214169450      0.0860000000      21.3610401530      0.1792841798      0.0000000000
0.1865214958     22179864.0675113462      0.0880000000      20.7097204954      0.1873625825      0.0000000000
0.1945017277     18539358.3138670772      0.0900000000      20.1515866449      0.1954982009      0.0000000000
0.2025276595     15600149.6102304757      0.0920000000      19.6685506295      0.2036888381      0.0000000000
0.2105978629     13205341.1279844102      0.0940000000      19.2468624700      0.2119331073      0.0000000000
0.2187115751     11238257.1069651376      0.0960000000      18.8758904846      0.2202303054      0.0000000000
0.2268685901      9610789.7858058345      0.0980000000      18.5472909471      0.2285803042      0.0000000000
0.2350691765      8255496.4551423667      0.1000000000      18.2544280981      0.2369834674      0.0000000000
0.2433140106      7120150.6006937288      0.1020000000      17.9919618807      0.2454405848      0.0000000000
0.2516041133      6163886.6636300758      0.1040000000      17.7555491290      0.2539528080      0.0000000000
0.2599408036      5354437.2865049820      0.1060000000      17.5416242752      0.2625216045      0.0000000000
0.2683256517      4666105.5303769326      0.1080000000      17.3472341635      0.2711487102      0.0000000000
0.2767604429      4078271.7431846610      0.1100000000      17.1699135184      0.2798360935      0.0000000000
0.2852471447      3574275.2969631255      0.1120000000      17.0075896772      0.2885859224      0.0000000000
0.2936561685      3146750.7275806777      0.1140000000      16.8607012588      0.2972645336      0.0000000000
0.3019469583      2783728.5251392829      0.1160000000      16.7278276233      0.3058297527      0.0000000000
0.3101939537      2471066.7648044839      0.1180000000      16.6060503376      0.3143582257      0.0000000000
0.3184198312      2199925.1163579593      0.1200000000      16.4937561497      0.3228732989      0.0000000000
0.3266384022      1963557.6367323054      0.1220000000      16.3897237482      0.3313892240      0.0000000000
0.3348599323      1756599.9101657944      0.1240000000      16.2929687422      0.3399166310      0.0000000000
0.3430928516      1574698.8642663567      0.1260000000      16.2026745336      0.3484642874      0.0000000000
0.3513444910      1414276.3153394426      0.1280000000      16.1181531920      0.3570398534      0.0000000000
0.3596214516      1272361.7929829126      0.1300000000      16.0388180910      0.3656502617      0.0000000000
0.3679298148      1146470.1136284529      0.1320000000      15.9641650219      0.3743019320      0.0000000000
0.3762752631      1034508.0553758796      0.1340000000      15.8937576249      0.3830008954      0.0000000000
0.3846631597       934702.2325854319      0.1360000000      15.8272161634      0.3917528746      0.0000000000
0.3930985987       845542.3808263205      0.1380000000      15.7642085627      0.4005633357      0.0000000000
0.4015864387       765735.7606513257      0.1400000000      15.7044428194      0.4094375221      0.0000000000
0.4101313299       694171.5229053952      0.1420000000      15.6476618936      0.4183804816      0.0000000000
0.4187377273       629890.9217826718      0.1440000000      15.5936381627      0.4273970804      0.0000000000
0.4274099038       572063.1682046683      0.1460000000      15.5421694382      0.4364920152      0.0000000000
0.4361519583       519966.1207047184      0.1480000000      15.4930756769      0.4456698216      0.0000000000
0.4449678187       472969.8660155429      0.1500000000      15.4461961132      0.4549348766      0.0000000000
0.4538612493       430523.1712890645      0.1520000000      15.4013866923      0.4642914061      0.0000000000
0.4628358517       392142.2348298104      0.1540000000      15.3585180541      0.4737434851      0.0000000000
0.4718950643       357401.3173681361      0.1560000000      15.3174735943      0.4832950371      0.0000000000
0.4810421643       325924.7533594950      0.1580000000      15.2781480728      0.4929498351      0.0000000000
0.4902802661       297380.2464711608      0.1600000000      15.2404461390      0.5027115000      0.0000000000
0.4996123237       271473.1725624482      0.1620000000      15.2042813121      0.5125835028      0.0000000000
0.5090411315       247941.7285247168      0.1640000000      15.1695747545      0.5225691642      0.0000000000
0.5185692998       226552.8647277190      0.1660000000      15.1362546293      0.5326716291      0.0000000000
0.5281992920       207098.5817506289      0.1680000000      15.1042550287      0.5428939043      0.0000000000
0.5379333945       189393.0110381785      0.1700000000      15.0735153927      0.5532388273      0.0000000000
0.5477737246       173269.7583281831      0.1720000000      15.0439801954      0.5637090731      0.0000000000
0.5577222267       158579.5839580171      0.1740000000      15.0155979488      0.5743071498      0.0000000000
0.5677806707       145188.4223262810      0.1760000000      14.9883209098      0.5850353964      0.0000000000
0.5779506502       132975.7608228025      0.1780000000      14.9621048441      0.5958959800      0.0000000000
0.5882335820       121833.0078579720      0.1800000000      14.9369083872      0.6068908945      0.0000000000
0.5986307018       111662.2660768301      0.1820000000      14.9126927927      0.6180219548      0.0000000000
0.6091430676       102375.1557772416      0.1840000000      14.8894218328      0.6292908005      0.0000000000
0.6197715524        93891.7925876081      0.1860000000      14.8670611286      0.6406988860      0.0000000000
0.6305168475        86139.9418475455      0.1880000000      14.8455783774      0.6522474841      0.0000000000
0.6413794787        79054.1403082576      0.1900000000      14.8249427409      0.6639377016      0.0000000000
0.6523597199        72575.1505080038      0.1920000000      14.8051250859      0.6757703857      0.0000000000
0.6634577608        66649.1601352858      0.1940000000      14.7860974082      0.6877463033      0.0000000000
0.6746735561        61227.3676958118      0.1960000000      14.7678329455      0.6998659776      0.0000000000
0.6860068483        56265.4545692892      0.1980000000      14.7503058792      0.7121297110      0.0000000000
0.6974572420        51723.1418771179      0.2000000000      14.7334915097      0.7245376643      0.0000000000
0.7090241457        47563.7858301609      0.2020000000      14.7173657534      0.7370897926      0.0000000000
0.7207067875        43754.0725850487      0.2040000000      14.7019054681      0.7497858608      0.0000000000
0.7325042168        40263.6669346980      0.2060000000      14.6870880486      0.7626254439      0.0000000000
0.7444153071        37064.9494850566      0.2080000000      14.6728915654      0.7756079289      0.0000000000
0.7564387579        34132.7532490556      0.2100000000      14.6592945856      0.7887325156      0.0000000000
0.7685730974        31444.1540857471      0.2120000000      14.6462762247      0.8019982172      0.0000000000
0.7808166863        28978.2434262989      0.2140000000      14.6338160158      0.8154038640      0.0000000000
0.7931677207        26715.9619061031      0.2160000000      14.6218939520      0.8289481043      0.0000000000
0.8056242364        24639.9197220955      0.2180000000      14.6104903935      0.8426294076      0.0000000000
0.8181841127        22734.2530141211      0.2200000000      14.5995861217      0.8564460678      0.0000000000
0.8308450765        20984.4788067085      0.2220000000      14.5891621299      0.8703962055      0.0000000000
0.8436047085        19377.3809686694      0.2240000000      14.5791999572      0.8844777732      0.0000000000
0.8564604458        17900.8912990315      0.2260000000      14.5696812845      0.8986885571      0.0000000000
0.8694095888        16543.9864275782      0.2280000000      14.5605881214      0.9130261828      0.0000000000
0.8824493079        15296.5987468584      0.2300000000      14.5519028999      0.9274881211      0.0000000000
0.8955766367        14149.5314749755      0.2320000000      14.5436082592      0.9420716789      0.0000000000
0.9087885180        13094.3758023047      0.2340000000      14.5356870849      0.9567740491      0.0000000000
0.9220817535        12123.4526079751      0.2360000000      14.5281226991      0.9715922526      0.0000000000
0.9354530453        11229.7397384381      0.2380000000      14.5208985580      0.9865231832      0.0000000000
0.9488989974        10406.8166221118      0.2400000000      14.5139985873      1.0015636083      0.0000000000
0.9624161179         9648.8126611871      0.2420000000      14.5074068145      1.0167101689      0.0000000000
0.9760008284         8950.3592052740      0.2440000000      14.5011077500      1.0319593899      0.0000000000
0.9896494695         8306.5450838526      0.2460000000      14.4950860775      1.0473076842      0.0000000000
1.0033583089         7712.8767499517      0.2480000000      14.4893268555      1.0627513606      0.0000000000
1.0171235474         7165.2430782994      0.2500000000      14.4838154308      1.0782866293      0.0000000000
1.0309413268         6659.8809772062      0.2520000000      14.4785374991      1.0939096101      0.0000000000
1.0448077353         6193.3456993633      0.2540000000      14.4734789930      1.1096163368      0.0000000000
1.0587188162         5762.4837389916      0.2560000000      14.4686262764      1.1254027663      0.0000000000
1.0726705741         5364.4070307959      0.2580000000      14.4639659511      1.1412647845      0.0000000000
1.0866589816         4996.4706279116      0.2600000000      14.4594850101      1.1571982130      0.0000000000
1.1006799865         4656.2512410504      0.2620000000      14.4551707646      1.1731988166      0.0000000000
1.1147295183         4341.5282524792      0.2640000000      14.4510108261      1.1892623098      0.0000000000
1.1288034948         4050.2668767008      0.2660000000      14.4469932061      1.2053843635      0.0000000000
1.1428978287         3780.6014443885      0.2680000000      14.4431062310      1.2215606124      0.0000000000
1.1570084342         3530.8214084685      0.2700000000      14.4393385821      1.2377866615      0.0000000000
1.1711312319         3299.3580270164      0.2720000000      14.4356792084      1.2540580914      0.0000000000
1.1852621571         3084.7719328730      0.2740000000      14.4321175456      1.2703704678      0.0000000000
1.1993971674         2885.7426290581      0.2760000000      14.4286432540      1.2867193493      0.0000000000
1.2135322340         2701.0579639998      0.2780000000      14.4252464089      1.3031002778      0.0000000000
1.2276633693         2529.6051102172      0.2800000000      14.4219173843      1.3195088099      0.0000000000
1.2417866179         2370.3621509360      0.2820000000      14.4186469042      1.3359405063      0.0000000000
1.2558980655         2222.3901908941      0.2840000000      14.4154260786      1.3523909425      0.0000000000
1.2699938423         2084.8267007260      0.2860000000      14.4122462955      1.3688557123      0.0000000000
1.2840701285         1956.8787712998      0.2880000000      14.4090993090      1.3853304350      0.0000000000
1.2981231591         1837.8174850856      0.2900000000      14.4059771857      1.4018107606      0.0000000000
1.3121492269         1726.9723311449      0.2920000000      14.4028723640      1.4182923741      0.0000000000
1.3261446863         1623.7266026601      0.2940000000      14.3997775381      1.4347709998      0.0000000000
1.3401059586         1527.5125690421      0.2960000000      14.3966857823      1.4512424085      0.0000000000
1.3540295322         1437.8077559051      0.2980000000      14.3935904399      1.4677024176      0.0000000000
1.3679119693         1354.1308986233      0.3000000000      14.3904852092      1.4841469002      0.0000000000
1.3817499062         1276.0386938606      0.3020000000      14.3873640411      1.5005717853      0.0000000000
1.3955400570         1203.1226337063      0.3040000000      14.3842212259      1.5169730633      0.0000000000
1.4092792153         1135.0061451472      0.3060000000      14.3810513100      1.5333467887      0.0000000000
1.4229642571         1071.3418773857      0.3080000000      14.3778491669      1.5496890843      0.0000000000
1.4365921422         1011.8094768438      0.3100000000      14.3746099285      1.5659961433      0.0000000000
1.4501599157          956.1133267001      0.3120000000      14.3713289740      1.5822642321      0.0000000000
1.4636647100          903.9804248524      0.3140000000      14.3680019964      1.5984896937      0.0000000000
1.4771037451          855.1587337751      0.3160000000      14.3646248973      1.6146689490      0.0000000000
1.4904743312          809.4153474989      0.3180000000      14.3611938820      1.6307985001      0.0000000000
1.5037738675          766.5350205738      0.3200000000      14.3577053401      1.6468749312      0.0000000000
1.5169998447          726.3187474755      0.3220000000      14.3541559648      1.6628949110      0.0000000000
1.5301498440          688.5824607382      0.3240000000      14.3505426347      1.6788551938      0.0000000000
1.5432215382          653.1558322639      0.3260000000      14.3468624526      1.6947526209      0.0000000000
1.5562126914          619.8811598244      0.3280000000      14.3431127762      1.7105841221      0.0000000000
1.5691211589          588.6124678701      0.3300000000      14.3392911164      1.7263467157      0.0000000000
1.5819448873          559.2144948930      0.3320000000      14.3353952260      1.7420375105      0.0000000000
1.5946819135          531.5618907285      0.3340000000      14.3314230420      1.7576537052      0.0000000000
1.6073303649          505.5384096037      0.3360000000      14.3273727001      1.7731925899      0.0000000000
1.6198884577          481.0362699244      0.3380000000      14.3232424707      1.7886515448      0.0000000000
1.6323544974          457.9554218400      0.3400000000      14.3190308551      1.8040280422      0.0000000000
1.6447268768          436.2030124204      0.3420000000      14.3147364954      1.8193196452      0.0000000000
1.6570040754          415.6928156035      0.3440000000      14.3103581943      1.8345240074      0.0000000000
1.6691846584          396.3446983634      0.3460000000      14.3058949076      1.8496388737      0.0000000000
1.6812672751          378.0842164774      0.3480000000      14.3013457235      1.8646620780      0.0000000000
1.6932506580          360.8421207251      0.3500000000      14.2967099102      1.8795915446      0.0000000000
1.7051336211          344.5540070817      0.3520000000      14.2919868357      1.8944252865      0.0000000000
1.7169150587          329.1599440862      0.3540000000      14.2871760038      1.9091614042      0.0000000000
1.7285939439          314.6041328759      0.3560000000      14.2822770579      1.9237980862      0.0000000000
1.7401693260          300.8346089254      0.3580000000      14.2772897213      1.9383336057      0.0000000000
1.7516403307          287.8029515004      0.3600000000      14.2722138682      1.9527663222      0.0000000000
1.7630061571          275.4640298624      0.3620000000      14.2670494541      1.9670946787      0.0000000000
1.7742660764          263.7757415248      0.3640000000      14.2617965299      1.9813172007      0.0000000000
1.7854194300          252.6988329330      0.3660000000      14.2564552678      1.9954324952      0.0000000000
1.7964656281          242.1966524593      0.3680000000      14.2510259099      2.0094392495      0.0000000000
1.8074041471          232.2349883860      0.3700000000      14.2455087636      2.0233362289      0.0000000000
1.8182345288          222.7818822182      0.3720000000      14.2399042541      2.0371222763      0.0000000000
1.8289563780          213.8074634523      0.3740000000      14.2342128837      2.0507963104      0.0000000000
1.8395693606          205.2838145828      0.3760000000      14.2284351757      2.0643573235      0.0000000000
1.8500732018          197.1848248512      0.3780000000      14.2225717565      2.0778043809      0.0000000000
1.8604676847          189.4860678606      0.3800000000      14.2166233231      2.0911366186      0.0000000000
1.8707526480          182.1646760304      0.3820000000      14.2105906091      2.1043532420      0.0000000000
1.8809279842          175.1992393112      0.3840000000      14.2044744261      2.1174535245      0.0000000000
1.8909936379          168.5697037467      0.3860000000      14.1982755806      2.1304368050      0.0000000000
1.9009496041          162.2572673109      0.3880000000      14.1919949995      2.1433024871      0.0000000000
1.9107959262          156.2443103193      0.3900000000      14.1856336043      2.1560500372      0.0000000000
1.9205326944          150.5143132356      0.3920000000      14.1791923870      2.1686789824      0.0000000000
1.9301600436          145.0517646046      0.3940000000      14.1726723486      2.1811889093      0.0000000000
1.9396781522          139.8421142841      0.3960000000      14.1660745444      2.1935794619      0.0000000000
1.9490872402          134.8716905973      0.3980000000      14.1594000531      2.2058503407      0.0000000000
1.9583875669          130.1276573639      0.4000000000      14.1526499655      2.2180012998      0.0000000000
1.9675794305          125.5979510368      0.4020000000      14.1458254382      2.2300321466      0.0000000000
1.9766631654          121.2712255862      0.4040000000      14.1389276265      2.2419427390      0.0000000000
1.9856391408          117.1368185840      0.4060000000      14.1319576904      2.2537329841      0.0000000000
1.9945077599          113.1846904082      0.4080000000      14.1249168494      2.2654028375      0.0000000000
2.0032694572          109.4053983941      0.4100000000      14.1178063004      2.2769523002      0.0000000000
2.0119246980          105.7900435949      0.4120000000      14.1106272725      2.2883814179      0.0000000000
2.0204739765          102.3302494515      0.4140000000      14.1033810057      2.2996902794      0.0000000000
2.0289178142           99.0181238210      0.4160000000      14.0960687580      2.3108790150      0.0000000000
2.0372567589           95.8462265371      0.4180000000      14.0886917868      2.3219477946      0.0000000000
2.0454913832           92.8075353753      0.4200000000      14.0812513364      2.3328968267      0.0000000000
2.0536222832           89.8954338108      0.4220000000      14.0737487080      2.3437263569      0.0000000000
2.0616500771           87.1036736131      0.4240000000      14.0661851648      2.3544366663      0.0000000000
2.0695754038           84.4263593536      0.4260000000      14.0585619739      2.3650280696      0.0000000000
2.0773989225           81.8579210133      0.4280000000      14.0508804262      2.3755009149      0.0000000000
2.0851213105           79.3930947310      0.4300000000      14.0431417946      2.3858555816      0.0000000000
2.0927432624           77.0269104740      0.4320000000      14.0353473576      2.3960924783      0.0000000000
2.1002654898           74.7546656828      0.4340000000      14.0274983851      2.4062120435      0.0000000000
2.1076887187           72.5719138483      0.4360000000      14.0195961588      2.4162147425      0.0000000000
2.1150136897           70.4744489510      0.4380000000      14.0116419279      2.4261010669      0.0000000000
