# M(M_sol)                 Lambda          n_Bc(fm^-3)         R(km)            m_B(M_sol)        m_Bquar/M_B
0.1519539091     32653894.5655070543      0.1290000000      21.6273347237      0.1521681781      0.0000000000
0.1549304255     29283168.7363815941      0.1310000000      21.1263471505      0.1551856365      0.0000000000
0.1580377690     26224568.8290085308      0.1330000000      20.6485732126      0.1583372029      0.0000000000
0.1612842827     23451080.3769418858      0.1350000000      20.1927564349      0.1616315332      0.0000000000
0.1646782746     20938734.6615253277      0.1370000000      19.7578261375      0.1650772726      0.0000000000
0.1682279959     18665961.6968131177      0.1390000000      19.3428586241      0.1686830355      0.0000000000
0.1719416193     16613141.4892810863      0.1410000000      18.9470466067      0.1724573845      0.0000000000
0.1758272145     14762243.6666821744      0.1430000000      18.5696729699      0.1764088080      0.0000000000
0.1798927173     13096581.6472865660      0.1450000000      18.2100895173      0.1805456892      0.0000000000
0.1841459005     11600627.5061369836      0.1470000000      17.8676996594      0.1848762792      0.0000000000
0.1885943539     10259883.1885018721      0.1490000000      17.5419458582      0.1894086774      0.0000000000
0.1932454287      9060792.2470526919      0.1510000000      17.2322984286      0.1941507762      0.0000000000
0.1981062474      7990668.2148989737      0.1530000000      16.9382460064      0.1991102723      0.0000000000
0.2031836550      7037649.4666067539      0.1550000000      16.6592899136      0.2042946185      0.0000000000
0.2084841993      6190680.1546963705      0.1570000000      16.3949399206      0.2097110040      0.0000000000
0.2140141113      5439470.6337190941      0.1590000000      16.1447104881      0.2153663349      0.0000000000
0.2197792820      4774480.1411619755      0.1610000000      15.9081180383      0.2212672118      0.0000000000
0.2257852498      4186897.0073909280      0.1630000000      15.6846816922      0.2274199167      0.0000000000
0.2320371796      3668614.2049061586      0.1650000000      15.4739213876      0.2338303917      0.0000000000
0.2385398511      3212202.0130036287      0.1670000000      15.2753586374      0.2405042273      0.0000000000
0.2452976541      2810880.9066282646      0.1690000000      15.0885172148      0.2474466570      0.0000000000
0.2523145687      2458489.3644894022      0.1710000000      14.9129240655      0.2546625367      0.0000000000
0.2595941626      2149451.5967516438      0.1730000000      14.7481106995      0.2621563408      0.0000000000
0.2671395884      1878740.2721459426      0.1750000000      14.5936142419      0.2699321590      0.0000000000
0.2749535741      1641838.8449162303      0.1770000000      14.4489782791      0.2779936848      0.0000000000
0.2830384235      1434706.2190218314      0.1790000000      14.3137549977      0.2863442150      0.0000000000
0.2913960149      1253736.6717201748      0.1810000000      14.1875053722      0.2949866461      0.0000000000
0.3000278002      1095724.1754960788      0.1830000000      14.0698009243      0.3039234726      0.0000000000
0.3089348053       957825.7971402025      0.1850000000      13.9602239311      0.3131567840      0.0000000000
0.3181176350       837527.8133887718      0.1870000000      13.8583687846      0.3226882688      0.0000000000
0.3275764717       732612.8155562460      0.1890000000      13.7638423592      0.3325192103      0.0000000000
0.3373110847       641129.1545831101      0.1910000000      13.6762644305      0.3426504936      0.0000000000
0.3473208311       561362.7506996136      0.1930000000      13.5952681940      0.3530826039      0.0000000000
0.3576046639       491810.7548836441      0.1950000000      13.5205002599      0.3638156316      0.0000000000
0.3681611368       431157.8212103096      0.1970000000      13.4516209204      0.3748492753      0.0000000000
0.3789884142       378254.4159028688      0.1990000000      13.3883044111      0.3861828475      0.0000000000
0.3900842762       332097.0211936158      0.2010000000      13.3302382617      0.3978152779      0.0000000000
0.4014461305       291810.7480774883      0.2030000000      13.2771236619      0.4097451214      0.0000000000
0.4130710196       256633.4454714885      0.2050000000      13.2286749969      0.4219705629      0.0000000000
0.4249556314       225901.7740766995      0.2070000000      13.1846196204      0.4344894241      0.0000000000
0.4370963113       199038.7472862852      0.2090000000      13.1446976057      0.4472991729      0.0000000000
0.4494890729       175542.7595228432      0.2110000000      13.1086613380      0.4603969310      0.0000000000
0.4621296089       154977.9078205079      0.2130000000      13.0762751901      0.4737794813      0.0000000000
0.4750133053       136965.5025134176      0.2150000000      13.0473150460      0.4874432793      0.0000000000
0.4881352520       121176.6015059285      0.2170000000      13.0215679179      0.5013844605      0.0000000000
0.5014902587       107325.5208108704      0.2190000000      12.9988316373      0.5155988532      0.0000000000
0.5150728676        95164.1043774028      0.2210000000      12.9789142482      0.5300819885      0.0000000000
0.5288773672        84476.8120708028      0.2230000000      12.9616336915      0.5448291108      0.0000000000
0.5428978072        75076.3774604458      0.2250000000      12.9468174664      0.5598351904      0.0000000000
0.5571280130        66800.0503344032      0.2270000000      12.9343020055      0.5750949352      0.0000000000
0.5715616015        59506.3568899531      0.2290000000      12.9239324580      0.5906028035      0.0000000000
0.5861919951        53072.2593446918      0.2310000000      12.9155622096      0.6063530163      0.0000000000
0.6010124377        47390.7081537257      0.2330000000      12.9090524926      0.6223395705      0.0000000000
0.6160160098        42368.5149617356      0.2350000000      12.9042720356      0.6385562519      0.0000000000
0.6311956442        37924.5187483874      0.2370000000      12.9010967388      0.6549966493      0.0000000000
0.6465441409        33987.9831948678      0.2390000000      12.8994092161      0.6716541671      0.0000000000
0.6620541835        30497.2248615207      0.2410000000      12.8990986040      0.6885220404      0.0000000000
0.6777183530        27398.4136791746      0.2430000000      12.9000601647      0.7055933472      0.0000000000
0.6935291432        24644.5394371993      0.2450000000      12.9021949256      0.7228610226      0.0000000000
0.7094789770        22194.5204906869      0.2470000000      12.9054095275      0.7403178737      0.0000000000
0.7255602192        20012.4247810446      0.2490000000      12.9096158140      0.7579565917      0.0000000000
0.7417651919        18066.8005077716      0.2510000000      12.9147306516      0.7757697670      0.0000000000
0.7580861884        16330.0942997382      0.2530000000      12.9206756137      0.7937499014      0.0000000000
0.7745154864        14778.1484194544      0.2550000000      12.9273768011      0.8118894222      0.0000000000
0.7910453622        13389.7627790616      0.2570000000      12.9347645336      0.8301806951      0.0000000000
0.8076681024        12146.3173588296      0.2590000000      12.9427731891      0.8486160367      0.0000000000
0.8243760181        11031.4419849398      0.2610000000      12.9513410166      0.8671877285      0.0000000000
0.8411614554        10030.7336215677      0.2630000000      12.9604098285      0.8858880277      0.0000000000
0.8580168078         9131.5071801691      0.2650000000      12.9699250154      0.9047091799      0.0000000000
0.8749345320         8322.5783543207      0.2670000000      12.9798350536      0.9236434370      0.0000000000
0.8919071372         7594.0808123709      0.2690000000      12.9900916976      0.9426830433      0.0000000000
0.9089272276         6937.2989521664      0.2710000000      13.0006495151      0.9618202843      0.0000000000
0.9259874905         6344.5274899388      0.2730000000      13.0114659129      0.9810474722      0.0000000000
0.9430807100         5808.9490294104      0.2750000000      13.0225009790      1.0003569622      0.0000000000
0.9601997755         5324.5240440401      0.2770000000      13.0337171995      1.0197411615      0.0000000000
0.9773376902         4885.8980619939      0.2790000000      13.0450795131      1.0391925399      0.0000000000
0.9944875778         4488.3192019848      0.2810000000      13.0565550850      1.0587036381      0.0000000000
1.0116426897         4127.5660460760      0.2830000000      13.0681131972      1.0782670758      0.0000000000
1.0287964102         3799.8848608118      0.2850000000      13.0797251284      1.0978755593      0.0000000000
1.0459422638         3501.9347729999      0.2870000000      13.0913641227      1.1175218901      0.0000000000
1.0630739191         3230.7392976331      0.2890000000      13.1030052117      1.1371989710      0.0000000000
1.0801851934         2983.6436529615      0.2910000000      13.1146250744      1.1568998126      0.0000000000
1.0972700576         2758.2784470873      0.2930000000      13.1262020894      1.1766175398      0.0000000000
1.1143226396         2552.5266628219      0.2950000000      13.1377161532      1.1963453978      0.0000000000
1.1313372271         2364.4946551399      0.2970000000      13.1491485725      1.2160767561      0.0000000000
1.1483082702         2192.4872577434      0.2990000000      13.1604820462      1.2358051139      0.0000000000
1.1652303844         2034.9856185160      0.3010000000      13.1717005996      1.2555241052      0.0000000000
1.1820983516         1890.6273331201      0.3030000000      13.1827894328      1.2752275010      0.0000000000
1.1989071219         1758.1893771291      0.3050000000      13.1937349351      1.2949092143      0.0000000000
1.2156518147         1636.5727475567      0.3070000000      13.2045246135      1.3145633025      0.0000000000
1.2323277187         1524.7888328168      0.3090000000      13.2151469496      1.3341839701      0.0000000000
1.2489302924         1421.9477130231      0.3110000000      13.2255914158      1.3537655707      0.0000000000
1.2654551650         1327.2476046696      0.3130000000      13.2358484761      1.3733026100      0.0000000000
1.2818981341         1239.9652099489      0.3150000000      13.2459093750      1.3927897460      0.0000000000
1.2982551664         1159.4476426200      0.3170000000      13.2557662217      1.4122217915      0.0000000000
1.3145223962         1085.1050195129      0.3190000000      13.2654118796      1.4315937141      0.0000000000
1.3306961243         1016.4038586669      0.3210000000      13.2748399543      1.4509006373      0.0000000000
1.3467728158          952.8613175092      0.3230000000      13.2840447401      1.4701378405      0.0000000000
1.3627490992          894.0399340343      0.3250000000      13.2930211511      1.4893007595      0.0000000000
1.3786217647          839.5430843208      0.3270000000      13.3017647420      1.5083849868      0.0000000000
1.3943877589          789.0108310165      0.3290000000      13.3102716135      1.5273862676      0.0000000000
1.4100441872          742.1162456453      0.3310000000      13.3185384113      1.5463005043      0.0000000000
1.4255883081          698.5621290625      0.3330000000      13.3265622784      1.5651237523      0.0000000000
1.4410175312          658.0781099158      0.3350000000      13.3343408461      1.5838522196      0.0000000000
1.4563294146          620.4179865051      0.3370000000      13.3418721699      1.6024822654      0.0000000000
1.4715216614          585.3573735286      0.3390000000      13.3491547198      1.6210103985      0.0000000000
1.4865921177          552.6916732732      0.3410000000      13.3561873817      1.6394332759      0.0000000000
1.5015387680          522.2340776433      0.3430000000      13.3629693724      1.6577477004      0.0000000000
1.5163597332          493.8139713735      0.3450000000      13.3695002535      1.6759506191      0.0000000000
1.5310532668          467.2753354582      0.3470000000      13.3757799280      1.6940391215      0.0000000000
1.5456177515          442.4754540962      0.3490000000      13.3818085514      1.7120104361      0.0000000000
1.5600516959          419.2836305630      0.3510000000      13.3875865950      1.7298619293      0.0000000000
1.5743537310          397.5801130048      0.3530000000      13.3931147782      1.7475911025      0.0000000000
1.5885226067          377.2550573951      0.3550000000      13.3983940298      1.7651955890      0.0000000000
1.6025571886          358.2076721323      0.3570000000      13.4034255293      1.7826731524      0.0000000000
1.6164564540          340.3453818398      0.3590000000      13.4082106468      1.8000216831      0.0000000000
1.6302194890          323.5830954536      0.3610000000      13.4127509365      1.8172391959      0.0000000000
1.6438454845          307.8425570656      0.3630000000      13.4170481448      1.8343238272      0.0000000000
1.6573337332          293.0517204167      0.3650000000      13.4211041548      1.8512738322      0.0000000000
1.6706836257          279.1442403883      0.3670000000      13.4249210125      1.8680875818      0.0000000000
1.6838946475          266.0589608766      0.3690000000      13.4285009049      1.8847635600      0.0000000000
1.6969663754          253.7394570065      0.3710000000      13.4318461121      1.9013003608      0.0000000000
1.7098984741          242.1336642422      0.3730000000      13.4349590557      1.9176966854      0.0000000000
1.7226906931          231.1934849151      0.3750000000      13.4378422572      1.9339513394      0.0000000000
1.7353428633          220.8744628126      0.3770000000      13.4404983173      1.9500632294      0.0000000000
1.7478548939          211.1354832942      0.3790000000      13.4429299268      1.9660313608      0.0000000000
1.7602267690          201.9384852258      0.3810000000      13.4451398389      1.9818548338      0.0000000000
1.7724585450          193.2482371182      0.3830000000      13.4471308990      1.9975328421      0.0000000000
1.7845503472          185.0320716039      0.3850000000      13.4489059976      2.0130646687      0.0000000000
1.7965023667          177.2597065349      0.3870000000      13.4504680656      2.0284496834      0.0000000000
1.8083148579          169.9030343037      0.3890000000      13.4518200878      2.0436873403      0.0000000000
1.8199881354          162.9359701096      0.3910000000      13.4529650950      2.0587771747      0.0000000000
1.8315225715          156.3342723566      0.3930000000      13.4539061532      2.0737188008      0.0000000000
1.8429185928          150.0754010133      0.3950000000      13.4546463243      2.0885119082      0.0000000000
1.8541766785          144.1383998140      0.3970000000      13.4551887230      2.1031562597      0.0000000000
1.8652973571          138.5037601110      0.3990000000      13.4555364873      2.1176516891      0.0000000000
1.8762812044          133.1533135884      0.4010000000      13.4556927344      2.1319980978      0.0000000000
1.8871288407          128.0701280293      0.4030000000      13.4556606074      2.1461954527      0.0000000000
1.8978409285          123.2384207303      0.4050000000      13.4554432678      2.1602437836      0.0000000000
1.9084181705          118.6434653857      0.4070000000      13.4550438541      2.1741431811      0.0000000000
1.9188613069          114.2715200872      0.4090000000      13.4544655182      2.1878937933      0.0000000000
1.9291711141          110.1097436741      0.4110000000      13.4537113842      2.2014958249      0.0000000000
1.9393484011          106.1461426920      0.4130000000      13.4527845903      2.2149495330      0.0000000000
1.9493940095          102.3695034077      0.4150000000      13.4516882658      2.2282552270      0.0000000000
1.9593088096           98.7693312707      0.4170000000      13.4504255049      2.2414132648      0.0000000000
1.9690936999           95.3358082910      0.4190000000      13.4489993858      2.2544240511      0.0000000000
1.9787496044           92.0597368070      0.4210000000      13.4474129896      2.2672880357      0.0000000000
1.9882774717           88.9325013719      0.4230000000      13.4456693502      2.2800057111      0.0000000000
1.9976782724           85.9460270916      0.4250000000      13.4437715035      2.2925776106      0.0000000000
2.0069529981           83.0927361194      0.4270000000      13.4417224450      2.3050043064      0.0000000000
2.0161026595           80.3655205612      0.4290000000      13.4395251510      2.3172864077      0.0000000000
2.0251282852           77.7577075595      0.4310000000      13.4371825628      2.3294245592      0.0000000000
2.0340309200           75.2630258227      0.4330000000      13.4346975955      2.3414194386      0.0000000000
2.0428116236           72.8755856144      0.4350000000      13.4320731404      2.3532717559      0.0000000000
2.0514714690           70.5898483134      0.4370000000      13.4293120592      2.3649822504      0.0000000000
2.0600115419           68.4006018141      0.4390000000      13.4264171626      2.3765516905      0.0000000000
2.0684329386           66.3029435460      0.4410000000      13.4233912497      2.3879808715      0.0000000000
2.0767367656           64.2922561116      0.4430000000      13.4202370816      2.3992706137      0.0000000000
2.0849241379           62.3641913363      0.4450000000      13.4169573803      2.4104217618      0.0000000000
2.0929961782           60.5146496826      0.4470000000      13.4135548363      2.4214351824      0.0000000000
2.1009540157           58.7397681053      0.4490000000      13.4100321043      2.4323117639      0.0000000000
2.1087987853           57.0358985730      0.4510000000      13.4063917977      2.4430524143      0.0000000000
2.1165316266           55.3996043121      0.4530000000      13.4026365019      2.4536580596      0.0000000000
2.1241536829           53.8276367233      0.4550000000      13.3987687605      2.4641296439      0.0000000000
2.1316661004           52.3169295506      0.4570000000      13.3947910923      2.4744681270      0.0000000000
2.1390700274           50.8645843429      0.4590000000      13.3907059623      2.4846744837      0.0000000000
2.1463666137           49.4678619013      0.4610000000      13.3865158150      2.4947497028      0.0000000000
2.1535570091           48.1241706665      0.4630000000      13.3822230286      2.5046947856      0.0000000000
2.1606423642           46.8310614422      0.4650000000      13.3778299914      2.5145107455      0.0000000000
2.1676238277           45.5862137662      0.4670000000      13.3733390239      2.5241986063      0.0000000000
2.1745025478           44.3874318086      0.4690000000      13.3687524070      2.5337594019      0.0000000000
2.1812796700           43.2326347357      0.4710000000      13.3640723939      2.5431941749      0.0000000000
2.1879563376           42.1198513116      0.4730000000      13.3593012066      2.5525039763      0.0000000000
2.1945336905           41.0472135419      0.4750000000      13.3544410215      2.5616898636      0.0000000000
2.2010128650           40.0129492610      0.4770000000      13.3494939870      2.5707529012      0.0000000000
2.2073949933           39.0153762092      0.4790000000      13.3444621924      2.5796941588      0.0000000000
2.2136812030           38.0529005512      0.4810000000      13.3393477269      2.5885147112      0.0000000000
2.2198726165           37.1240075630      0.4830000000      13.3341526261      2.5972156370      0.0000000000
2.2259703510           36.2272580083      0.4850000000      13.3288788764      2.6057980183      0.0000000000
2.2319755179           35.3612856387      0.4870000000      13.3235284597      2.6142629403      0.0000000000
