# M(M_sol)                 Lambda          n_Bc(fm^-3)         R(km)            m_B(M_sol)        m_Bquar/M_B
0.1508323934     11669920.0706993062      0.1690000000      16.9656979530      0.1510702253      0.0000000000
0.1572890000      9413585.2705194559      0.1710000000      16.3772813583      0.1576252771      0.0000000000
0.1640469383      7623046.3061760468      0.1730000000      15.8623267834      0.1644938574      0.0000000000
0.1711032471      6196634.9792346507      0.1750000000      15.4103381015      0.1716739126      0.0000000000
0.1784551947      5056071.1540732300      0.1770000000      15.0125962068      0.1791636439      0.0000000000
0.1860997153      4140726.6991920280      0.1790000000      14.6617739316      0.1869609312      0.0000000000
0.1940339468      3403495.6890496663      0.1810000000      14.3517340581      0.1950638806      0.0000000000
0.2022547549      2807599.8265636242      0.1830000000      14.0772667153      0.2034703361      0.0000000000
0.2107589027      2324241.5258758352      0.1850000000      13.8339450061      0.2121780512      0.0000000000
0.2195431646      1930802.0667154475      0.1870000000      13.6180023450      0.2211848039      0.0000000000
0.2286041004      1609448.2821377732      0.1890000000      13.4262022907      0.2304881632      0.0000000000
0.2379381871      1346080.0769650852      0.1910000000      13.2557635747      0.2400856227      0.0000000000
0.2475415760      1129505.7570482483      0.1930000000      13.1042657472      0.2499743477      0.0000000000
0.2574105076       950825.9356930745      0.1950000000      12.9696304761      0.2601516007      0.0000000000
0.2675408462       802929.2420600741      0.1970000000      12.8500282489      0.2706142600      0.0000000000
0.2779283567       680121.5213899952      0.1990000000      12.7438651448      0.2813591013      0.0000000000
0.2885687766       577829.8735780920      0.2010000000      12.6497561863      0.2923828719      0.0000000000
0.2994574088       492363.6789373855      0.2030000000      12.5664586077      0.3036818652      0.0000000000
0.3105895871       420741.8885063639      0.2050000000      12.4928926565      0.3152524009      0.0000000000
0.3219604088       360545.5380184441      0.2070000000      12.4280961802      0.3270905463      0.0000000000
0.3335647640       309806.0540644175      0.2090000000      12.3712103053      0.3391921415      0.0000000000
0.3453974661       266917.9266381999      0.2110000000      12.3214776674      0.3515529355      0.0000000000
0.3574530947       230566.3193545605      0.2130000000      12.2782146605      0.3641684186      0.0000000000
0.3697261572       199672.4518880960      0.2150000000      12.2408158643      0.3770339882      0.0000000000
0.3822109423       173347.7680956204      0.2170000000      12.2087311405      0.3901447946      0.0000000000
0.3949016971       150859.1307908657      0.2190000000      12.1814735792      0.4034959225      0.0000000000
0.4077924378       131599.1529502325      0.2210000000      12.1585949791      0.4170821911      0.0000000000
0.4208771568       115063.9919937038      0.2230000000      12.1396984043      0.4308983692      0.0000000000
0.4341496954       100834.1165096960      0.2250000000      12.1244207905      0.4449390387      0.0000000000
0.4476037760        88559.3630292827      0.2270000000      12.1124308599      0.4591986265      0.0000000000
0.4612331185        77947.0165659201      0.2290000000      12.1034352397      0.4736715258      0.0000000000
0.4750312716        68751.2977436340      0.2310000000      12.0971588627      0.4883519152      0.0000000000
0.4889917852        60765.7343494093      0.2330000000      12.0933570495      0.5032339401      0.0000000000
0.5031080806        53816.1421153013      0.2350000000      12.0918002245      0.5183115713      0.0000000000
0.5173736317        47755.5722066785      0.2370000000      12.0922874861      0.5335787997      0.0000000000
0.5317817459        42459.3596770220      0.2390000000      12.0946236229      0.5490293967      0.0000000000
0.5463258453        37821.9368880524      0.2410000000      12.0986423523      0.5646572171      0.0000000000
0.5609991927        33753.3088017628      0.2430000000      12.1041787779      0.5804559019      0.0000000000
0.5757951673        30176.9277848437      0.2450000000      12.1110925123      0.5964191741      0.0000000000
0.5907070787        27027.3097787872      0.2470000000      12.1192478307      0.6125406371      0.0000000000
0.6057282422        24248.4296963158      0.2490000000      12.1285213499      0.6288138551      0.0000000000
0.6208520125        21792.2297355370      0.2510000000      12.1387994527      0.6452323885      0.0000000000
0.6360717629        19617.4104613845      0.2530000000      12.1499773808      0.6617897703      0.0000000000
0.6513809152        17688.4155136033      0.2550000000      12.1619597303      0.6784795386      0.0000000000
0.6667729620        15974.5894646008      0.2570000000      12.1746613041      0.6952952609      0.0000000000
0.6822413486        14449.3695506028      0.2590000000      12.1879944136      0.7122304025      0.0000000000
0.6977796749        13089.8142985197      0.2610000000      12.2018868895      0.7292785495      0.0000000000
0.7133815737        11876.0018318300      0.2630000000      12.2162693914      0.7464332739      0.0000000000
0.7290407060        10790.6005409136      0.2650000000      12.2310737009      0.7636881286      0.0000000000
0.7447508929         9818.5589014156      0.2670000000      12.2462445120      0.7810367929      0.0000000000
0.7605059744         8946.7231944505      0.2690000000      12.2617248379      0.7984729169      0.0000000000
0.7762999112         8163.6178495026      0.2710000000      12.2774650396      0.8159902337      0.0000000000
0.7921267219         7459.1894246507      0.2730000000      12.2934158548      0.8335824906      0.0000000000
0.8079805681         6824.6433127550      0.2750000000      12.3095358933      0.8512435443      0.0000000000
0.8238556941         6252.2537136189      0.2770000000      12.3257852404      0.8689672941      0.0000000000
0.8397464242         5735.2220461895      0.2790000000      12.3421243750      0.8867476787      0.0000000000
0.8556472446         5267.5767076620      0.2810000000      12.3585216969      0.9045787699      0.0000000000
0.8715527194         4844.0433306722      0.2830000000      12.3749447723      0.9224546783      0.0000000000
0.8874575163         4459.9627213095      0.2850000000      12.3913622711      0.9403695831      0.0000000000
0.9033564780         4111.2259782011      0.2870000000      12.4077507603      0.9583178135      0.0000000000
0.9192445001         3794.1818123555      0.2890000000      12.4240820166      0.9762937122      0.0000000000
0.9351166637         3505.6032542742      0.2910000000      12.4403360488      0.9942917857      0.0000000000
0.9509681284         3242.6176045251      0.2930000000      12.4564899573      1.0123065851      0.0000000000
0.9667942135         3002.6753038213      0.2950000000      12.4725258929      1.0303327984      0.0000000000
0.9825903514         2783.5047205834      0.2970000000      12.4884261592      1.0483652000      0.0000000000
0.9983520891         2583.0788611191      0.2990000000      12.5041729817      1.0663986517      0.0000000000
1.0140751284         2399.5916036686      0.3010000000      12.5197526161      1.0844281517      0.0000000000
1.0297552947         2231.4282534518      0.3030000000      12.5351520329      1.1024488000      0.0000000000
1.0453885236         2077.1417402482      0.3050000000      12.5503571460      1.1204557828      0.0000000000
1.0609709043         1935.4383192736      0.3070000000      12.5653577562      1.1384444256      0.0000000000
1.0764986553         1805.1573447638      0.3090000000      12.5801444440      1.1564101659      0.0000000000
1.0919681040         1685.2548138817      0.3110000000      12.5947066455      1.1743485308      0.0000000000
1.1073757209         1574.7934698112      0.3130000000      12.6090362536      1.1922551779      0.0000000000
1.1227181128         1472.9304299123      0.3150000000      12.6231269308      1.2101258900      0.0000000000
1.1379920045         1378.9054337210      0.3170000000      12.6369721619      1.2279565538      0.0000000000
1.1531942232         1292.0312444288      0.3190000000      12.6505636166      1.2457431439      0.0000000000
1.1683217631         1211.6901814449      0.3210000000      12.6638983135      1.2634817999      0.0000000000
1.1833717102         1137.3218404276      0.3230000000      12.6769704768      1.2811687391      0.0000000000
1.1983412981         1068.4207524623      0.3250000000      12.6897777988      1.2988003243      0.0000000000
1.2132278466         1004.5271398379      0.3270000000      12.7023147512      1.3163729924      0.0000000000
1.2280288237          945.2257104811      0.3290000000      12.7145796982      1.3338833288      0.0000000000
1.2427418017          890.1389819668      0.3310000000      12.7265701290      1.3513280177      0.0000000000
1.2573644692          838.9241033396      0.3330000000      12.7382842069      1.3687038574      0.0000000000
1.2718946258          791.2691976002      0.3350000000      12.7497203083      1.3860077548      0.0000000000
1.2863301785          746.8902514111      0.3370000000      12.7608768342      1.4032367232      0.0000000000
1.3006691562          705.5291793373      0.3390000000      12.7717541983      1.4203879014      0.0000000000
1.3149096738          666.9496956736      0.3410000000      12.7823507128      1.4374585103      0.0000000000
1.3290499708          630.9370515522      0.3430000000      12.7926675060      1.4544459028      0.0000000000
1.3430883747          597.2944591677      0.3450000000      12.8027043177      1.4713475192      0.0000000000
1.3570233082          565.8419207317      0.3470000000      12.8124606929      1.4881608984      0.0000000000
1.3708533083          536.4152619028      0.3490000000      12.8219384737      1.5048837015      0.0000000000
1.3845769998          508.8639263097      0.3510000000      12.8311388891      1.5215136818      0.0000000000
1.3981930907          483.0495603825      0.3530000000      12.8400623216      1.5380486791      0.0000000000
1.4117003925          458.8456838275      0.3550000000      12.8487108968      1.5544866472      0.0000000000
1.4250977970          436.1359445273      0.3570000000      12.8570861564      1.5708256253      0.0000000000
1.4383842751          414.8132469038      0.3590000000      12.8651889235      1.5870637385      0.0000000000
1.4515588945          394.7794988331      0.3610000000      12.8730219528      1.6031992201      0.0000000000
1.4646207962          375.9442058761      0.3630000000      12.8805872245      1.6192303846      0.0000000000
1.4775692005          358.2240579404      0.3650000000      12.8878869942      1.6351556352      0.0000000000
1.4904034033          341.5422709998      0.3670000000      12.8949236277      1.6509734610      0.0000000000
1.5031227739          325.8279773681      0.3690000000      12.9016995422      1.6666824347      0.0000000000
1.5157267504          311.0157493707      0.3710000000      12.9082169407      1.6822812079      0.0000000000
1.5282148466          297.0452614213      0.3730000000      12.9144789979      1.6977685212      0.0000000000
1.5405866311          283.8605285723      0.3750000000      12.9204874106      1.7131431786      0.0000000000
1.5528417586          271.4101274127      0.3770000000      12.9262468019      1.7284040871      0.0000000000
1.5649799163          259.6459663190      0.3790000000      12.9317578800      1.7435501912      0.0000000000
1.5770008831          248.5240126143      0.3810000000      12.9370256733      1.7585805479      0.0000000000
1.5889044659          238.0029517215      0.3830000000      12.9420511327      1.7734942464      0.0000000000
1.6006905562          228.0449156304      0.3850000000      12.9468392566      1.7882904816      0.0000000000
1.6123590711          218.6143339189      0.3870000000      12.9513911437      1.8029684793      0.0000000000
1.6239100085          209.6785882027      0.3890000000      12.9557119071      1.8175275672      0.0000000000
1.6353433862          201.2069321009      0.3910000000      12.9598025792      1.8319670983      0.0000000000
1.6466592961          193.1711311518      0.3930000000      12.9636678172      1.8462865199      0.0000000000
1.6578578629          185.5447518766      0.3950000000      12.9673104664      1.8604853230      0.0000000000
1.6689392561          178.3031625116      0.3970000000      12.9707334983      1.8745630565      0.0000000000
1.6799036900          171.4234595140      0.3990000000      12.9739401907      1.8885193286      0.0000000000
1.6907514186          164.8842814576      0.4010000000      12.9769337039      1.9023538014      0.0000000000
1.7014827379          158.6657305197      0.4030000000      12.9797177293      1.9160661930      0.0000000000
1.7120979684          152.7491010230      0.4050000000      12.9822940523      1.9296562567      0.0000000000
1.7225974862          147.1171379060      0.4070000000      12.9846673959      1.9431238209      0.0000000000
1.7329816881          141.7535820038      0.4090000000      12.9868405425      1.9564687448      0.0000000000
1.7432510022          136.6432135572      0.4110000000      12.9888161608      1.9696909321      0.0000000000
1.7534058945          131.7718736395      0.4130000000      12.9905979248      1.9827903405      0.0000000000
1.7634468575          127.1262771426      0.4150000000      12.9921890470      1.9957669669      0.0000000000
1.7733744080          122.6939551529      0.4170000000      12.9935922341      2.0086208451      0.0000000000
1.7831890926          118.4632510554      0.4190000000      12.9948106789      2.0213520534      0.0000000000
1.7928914854          114.4232586037      0.4210000000      12.9958478707      2.0339607112      0.0000000000
1.8024821804          110.5637176853      0.4230000000      12.9967067539      2.0464469708      0.0000000000
1.8119617968          106.8750137600      0.4250000000      12.9973905714      2.0588110228      0.0000000000
1.8213309705          103.3480942314      0.4270000000      12.9979019542      2.0710530868      0.0000000000
1.8305903603           99.9744721937      0.4290000000      12.9982438387      2.0831734188      0.0000000000
1.8397406449           96.7461789980      0.4310000000      12.9984193535      2.0951723081      0.0000000000
1.8487825224           93.6557291309      0.4330000000      12.9984318029      2.1070500763      0.0000000000
1.8577167036           90.6960633593      0.4350000000      12.9982839238      2.1188070692      0.0000000000
1.8665439178           87.8605469254      0.4370000000      12.9979787911      2.1304436641      0.0000000000
1.8752649057           85.1429137309      0.4390000000      12.9975189703      2.1419602610      0.0000000000
1.8838804229           82.5372727656      0.4410000000      12.9969072075      2.1533572873      0.0000000000
1.8923912390           80.0380752397      0.4430000000      12.9961464066      2.1646351966      0.0000000000
1.9007981364           77.6400989133      0.4450000000      12.9952396535      2.1757944674      0.0000000000
1.9091019061           75.3384029783      0.4470000000      12.9941895836      2.1868355973      0.0000000000
1.9173033481           73.1283123001      0.4490000000      12.9929986390      2.1977591041      0.0000000000
1.9254032749           71.0054469044      0.4510000000      12.9916698102      2.2085655307      0.0000000000
1.9334025052           68.9656397014      0.4530000000      12.9902056216      2.2192554354      0.0000000000
1.9413018653           67.0049628315      0.4550000000      12.9886086285      2.2298293956      0.0000000000
1.9491021916           65.1197157933      0.4570000000      12.9868818250      2.2402880102      0.0000000000
1.9568043182           63.3063590276      0.4590000000      12.9850267589      2.2506318836      0.0000000000
1.9644090961           61.5615948528      0.4610000000      12.9830468803      2.2608616503      0.0000000000
1.9719173749           59.8822790129      0.4630000000      12.9809445082      2.2709779524      0.0000000000
1.9793300074           58.2654184248      0.4650000000      12.9787217509      2.2809814435      0.0000000000
1.9866478537           56.7082034635      0.4670000000      12.9763813487      2.2908727961      0.0000000000
1.9938717741           55.2079548485      0.4690000000      12.9739254259      2.3006526909      0.0000000000
2.0010026325           53.7621366619      0.4710000000      12.9713563295      2.3103218219      0.0000000000
2.0080412965           52.3683535476      0.4730000000      12.9686766160      2.3198808965      0.0000000000
2.0149886326           51.0243192592      0.4750000000      12.9658883825      2.3293306283      0.0000000000
2.0218455088           49.7278684964      0.4770000000      12.9629937382      2.3386717421      0.0000000000
2.0286127964           48.4769540392      0.4790000000      12.9599952902      2.3479049748      0.0000000000
2.0352913610           47.2696086387      0.4810000000      12.9568945492      2.3570310637      0.0000000000
2.0418820753           46.1039941678      0.4830000000      12.9536942828      2.3660507642      0.0000000000
2.0483858062           44.9783395234      0.4850000000      12.9503963263      2.3749648316      0.0000000000
2.0548034205           43.8909686399      0.4870000000      12.9470027133      2.3837740294      0.0000000000
2.0611357845           42.8402887100      0.4890000000      12.9435155517      2.3924791282      0.0000000000
2.0673837629           41.8247873668      0.4910000000      12.9399369427      2.4010809045      0.0000000000
2.0735482160           40.8430114948      0.4930000000      12.9362685855      2.4095801366      0.0000000000
2.0796300051           39.8935949780      0.4950000000      12.9325127285      2.4179776118      0.0000000000
2.0856299842           38.9752181640      0.4970000000      12.9286708036      2.4262741158      0.0000000000
2.0915490097           38.0866436980      0.4990000000      12.9247451520      2.4344704445      0.0000000000
2.0973879319           37.2266814306      0.5010000000      12.9207375865      2.4425673935      0.0000000000
2.1031475968           36.3941948609      0.5030000000      12.9166497676      2.4505657601      0.0000000000
2.1088288474           35.5881023595      0.5050000000      12.9124834191      2.4584663447      0.0000000000
2.1144325227           34.8073730061      0.5070000000      12.9082402983      2.4662699497      0.0000000000
2.1199594581           34.0510229887      0.5090000000      12.9039221865      2.4739773800      0.0000000000
2.1254104849           33.3181160714      0.5110000000      12.8995309210      2.4815894419      0.0000000000
2.1307864289           32.6077546914      0.5130000000      12.8950681921      2.4891069414      0.0000000000
2.1360881090           31.9190759444      0.5150000000      12.8905351735      2.4965306821      0.0000000000
2.1413163441           31.2512678680      0.5170000000      12.8859339907      2.5038614744      0.0000000000
2.1464719425           30.6035420171      0.5190000000      12.8812657443      2.5111001213      0.0000000000
2.1515557124           29.9751560064      0.5210000000      12.8765324035      2.5182474319      0.0000000000
2.1565684536           29.3653941721      0.5230000000      12.8717354192      2.5253042113      0.0000000000
2.1615109607           28.7735701447      0.5250000000      12.8668762069      2.5322712632      0.0000000000
2.1663840225           28.1990288338      0.5270000000      12.8619561887      2.5391493901      0.0000000000
