# M(M_sol)                 Lambda          n_Bc(fm^-3)         R(km)            m_B(M_sol)        m_Bquar/M_B
0.1502644146     48011153.8006844223      0.0960000000      23.8569641466      0.1504674567      0.0000000000
0.1544232513     41902523.0897270739      0.0980000000      23.1280152015      0.1546826090      0.0000000000
0.1586068334     36728266.8527640551      0.1000000000      22.4766029535      0.1589253667      0.0000000000
0.1628187497     32311165.4372647665      0.1020000000      21.8905156683      0.1631994042      0.0000000000
0.1670628733     28515204.0185908265      0.1040000000      21.3599714677      0.1675086952      0.0000000000
0.1713433084     25234152.9079185426      0.1060000000      20.8770477415      0.1718574589      0.0000000000
0.1756643482     22383834.9499521852      0.1080000000      20.4352661092      0.1762501182      0.0000000000
0.1800304473     19896690.5113555901      0.1100000000      20.0292808539      0.1806912721      0.0000000000
0.1844461868     17717911.4957980253      0.1120000000      19.6546456837      0.1851856607      0.0000000000
0.1888901201     15813037.4432461057      0.1140000000      19.3095766693      0.1897115213      0.0000000000
0.1933048404     14162553.3910430055      0.1160000000      18.9946798769      0.1942103826      0.0000000000
0.1977348805     12712322.9929043148      0.1180000000      18.7033700191      0.1987276094      0.0000000000
0.2021971060     11429733.1912722364      0.1200000000      18.4321222958      0.2032804402      0.0000000000
0.2067023651     10290323.9754441064      0.1220000000      18.1783866245      0.2078800112      0.0000000000
0.2112593976      9274541.0711373277      0.1240000000      17.9401415795      0.2125353323      0.0000000000
0.2158759133      8366347.8131683124      0.1260000000      17.7157303680      0.2172543838      0.0000000000
0.2205590142      7552374.3182455078      0.1280000000      17.5037678352      0.2220445454      0.0000000000
0.2253154130      6821349.3928712672      0.1300000000      17.3030826737      0.2269128186      0.0000000000
0.2301515400      6163681.7389551923      0.1320000000      17.1126752624      0.2318659360      0.0000000000
0.2350736107      5571145.7102348069      0.1340000000      16.9316866967      0.2369104295      0.0000000000
0.2400876667      5036640.9472255791      0.1360000000      16.7593749841      0.2420526734      0.0000000000
0.2451995931      4553998.6740580490      0.1380000000      16.5950955928      0.2472989012      0.0000000000
0.2504151399      4117830.7323388532      0.1400000000      16.4382864414      0.2526552283      0.0000000000
0.2557399240      3723406.9927082788      0.1420000000      16.2884552306      0.2581276551      0.0000000000
0.2611794339      3366555.0566681321      0.1440000000      16.1451688501      0.2637220705      0.0000000000
0.2667390299      3043579.7774273879      0.1460000000      16.0080453821      0.2694442545      0.0000000000
0.2724239394      2751193.7618315588      0.1480000000      15.8767457850      0.2752998720      0.0000000000
0.2782392550      2486465.0022976422      0.1500000000      15.7509688162      0.2812944724      0.0000000000
0.2841899264      2246767.2352515226      0.1520000000      15.6304450284      0.2874334807      0.0000000000
0.2902807613      2029742.2259455381      0.1540000000      15.5149320910      0.2937221999      0.0000000000
0.2965163924      1833268.0100938759      0.1560000000      15.4042122777      0.3001657759      0.0000000000
0.3029013062      1655429.1363431651      0.1580000000      15.2980874436      0.3067692286      0.0000000000
0.3094398105      1494493.6316914139      0.1600000000      15.1963768941      0.3135374180      0.0000000000
0.3161360330      1348894.0350057404      0.1620000000      15.0989154690      0.3204750428      0.0000000000
0.3229939088      1217208.3943004913      0.1640000000      15.0055502859      0.3275866282      0.0000000000
0.3300171771      1098145.8909326948      0.1660000000      14.9161397563      0.3348765212      0.0000000000
0.3372093690       990533.6488862132      0.1680000000      14.8305514132      0.3423488794      0.0000000000
0.3445738019       893305.3830158245      0.1700000000      14.7486611780      0.3500076641      0.0000000000
0.3521135690       805491.1220098832      0.1720000000      14.6703514269      0.3578566288      0.0000000000
0.3598315344       726208.3808355806      0.1740000000      14.5955105360      0.3658993150      0.0000000000
0.3677303212       654654.2104663778      0.1760000000      14.5240318399      0.3741390380      0.0000000000
0.3758123221       590097.9481657132      0.1780000000      14.4558126174      0.3825788986      0.0000000000
0.3840796701       531875.0684972538      0.1800000000      14.3907540707      0.3912217505      0.0000000000
0.3925342452       479381.2687483163      0.1820000000      14.3287602032      0.4000702081      0.0000000000
0.4011776720       432067.1942392025      0.1840000000      14.2697377313      0.4091266419      0.0000000000
0.4100113129       389433.7909400682      0.1860000000      14.2135957181      0.4183931708      0.0000000000
0.4190362640       351027.8977302410      0.1880000000      14.1602450606      0.4278716565      0.0000000000
0.4282533552       316438.2841697925      0.1900000000      14.1095984935      0.4375637031      0.0000000000
0.4376631487       285292.0145929990      0.1920000000      14.0615703781      0.4474706534      0.0000000000
0.4472659330       257251.1039926961      0.1940000000      14.0160762360      0.4575935814      0.0000000000
0.4570617314       232009.5004333864      0.1960000000      13.9730332848      0.4679332999      0.0000000000
0.4670502947       209290.1538708190      0.1980000000      13.9323596520      0.4784903510      0.0000000000
0.4772311069       188842.5923411518      0.2000000000      13.8939749722      0.4892650108      0.0000000000
0.4876033849       170440.3992457633      0.2020000000      13.8577998400      0.5002572866      0.0000000000
0.4981660835       153879.1053334120      0.2040000000      13.8237561882      0.5114669208      0.0000000000
0.5089178953       138974.1681896030      0.2060000000      13.7917670191      0.5228933887      0.0000000000
0.5198572564       125559.1343210759      0.2080000000      13.7617564888      0.5345359023      0.0000000000
0.5309823532       113483.9534794734      0.2100000000      13.7336501829      0.5463934162      0.0000000000
0.5422911220       102613.4474930355      0.2120000000      13.7073746938      0.5584646237      0.0000000000
0.5537812606        92825.8851194488      0.2140000000      13.6828580505      0.5707479682      0.0000000000
0.5654502296        84011.7161107551      0.2160000000      13.6600295351      0.5832416417      0.0000000000
0.5772952629        76072.3931736009      0.2180000000      13.6388198855      0.5959435938      0.0000000000
0.5893133706        68919.2857615633      0.2200000000      13.6191609607      0.6088515325      0.0000000000
0.6015013513        62472.7486194285      0.2220000000      13.6009863818      0.6219629353      0.0000000000
0.6138557965        56661.1971039265      0.2240000000      13.5842309835      0.6352750512      0.0000000000
0.6263731003        51420.3286285877      0.2260000000      13.5688310993      0.6487849089      0.0000000000
0.6390494686        46692.4034793972      0.2280000000      13.5547247241      0.6624893247      0.0000000000
0.6518809263        42425.5681212980      0.2300000000      13.5418512243      0.6763849074      0.0000000000
0.6648633280        38573.2757627412      0.2320000000      13.5301515413      0.6904680680      0.0000000000
0.6779923681        35093.7442110506      0.2340000000      13.5195682905      0.7047350281      0.0000000000
0.6912635883        31949.4695700592      0.2360000000      13.5100454434      0.7191818260      0.0000000000
0.7046723885        29106.7998123961      0.2380000000      13.5015287588      0.7338043262      0.0000000000
0.7182140380        26535.5269332834      0.2400000000      13.4939655266      0.7485982294      0.0000000000
0.7318836834        24208.5409305152      0.2420000000      13.4873045300      0.7635590794      0.0000000000
0.7456763596        22101.5116245505      0.2440000000      13.4814962082      0.7786822726      0.0000000000
0.7595870002        20192.5988295325      0.2460000000      13.4764926020      0.7939630678      0.0000000000
0.7736104480        18462.1954415480      0.2480000000      13.4722471989      0.8093965955      0.0000000000
0.7877414641        16892.6988152752      0.2500000000      13.4687152054      0.8249778669      0.0000000000
0.8019747386        15468.2995784617      0.2520000000      13.4658532712      0.8407017830      0.0000000000
0.8163049001        14174.7998035595      0.2540000000      13.4636195407      0.8565631441      0.0000000000
0.8307265257        12999.4424723170      0.2560000000      13.4619737093      0.8725566591      0.0000000000
0.8452341515        11930.7630463736      0.2580000000      13.4608769062      0.8886769557      0.0000000000
0.8598222807        10958.4581386095      0.2600000000      13.4602918111      0.9049185885      0.0000000000
0.8744853940        10073.2611150233      0.2620000000      13.4601824244      0.9212760489      0.0000000000
0.8892179584         9266.8376040324      0.2640000000      13.4605142407      0.9377437739      0.0000000000
0.9040144360         8531.6876367651      0.2660000000      13.4612540648      0.9543161552      0.0000000000
0.9188692926         7861.0610506955      0.2680000000      13.4623701125      0.9709875478      0.0000000000
0.9337770060         7248.8782213886      0.2700000000      13.4638317773      0.9877522782      0.0000000000
0.9487320751         6689.6635274057      0.2720000000      13.4656099534      1.0046046548      0.0000000000
0.9637290262         6178.4810690144      0.2740000000      13.4676766242      1.0215389734      0.0000000000
0.9787624214         5710.8801510094      0.2760000000      13.4700050746      1.0385495276      0.0000000000
0.9938268658         5282.8467373661      0.2780000000      13.4725697561      1.0556306152      0.0000000000
1.0089170136         4890.7578650349      0.2800000000      13.4753462894      1.0727765458      0.0000000000
1.0240275756         4531.3415567359      0.2820000000      13.4783113616      1.0899816489      0.0000000000
1.0391533251         4201.6428723135      0.2840000000      13.4814428857      1.1072402809      0.0000000000
1.0542891031         3898.9901209451      0.2860000000      13.4847196955      1.1245468307      0.0000000000
1.0694298247         3620.9678485922      0.2880000000      13.4881217480      1.1418957275      0.0000000000
1.0845704838         3365.3903003593      0.2900000000      13.4916299379      1.1592814464      0.0000000000
1.0997061582         3130.2784900801      0.2920000000      13.4952261983      1.1766985149      0.0000000000
1.1148320135         2913.8401284249      0.2940000000      13.4988932689      1.1941415173      0.0000000000
1.1299433074         2714.4506700586      0.2960000000      13.5026148888      1.2116051009      0.0000000000
1.1450353948         2530.6371160034      0.2980000000      13.5063756718      1.2290839816      0.0000000000
1.1601037287         2361.0628732633      0.3000000000      13.5101609960      1.2465729470      0.0000000000
1.1751438663         2204.5144762204      0.3020000000      13.5139571430      1.2640668630      0.0000000000
1.1901514689         2059.8896450990      0.3040000000      13.5177510345      1.2815606754      0.0000000000
1.2051223071         1926.1865682056      0.3060000000      13.5215304949      1.2990494162      0.0000000000
1.2200522613         1802.4941039965      0.3080000000      13.5252839816      1.3165282059      0.0000000000
1.2349373231         1687.9829072097      0.3100000000      13.5290006431      1.3339922555      0.0000000000
1.2497735993         1581.8981888255      0.3120000000      13.5326703537      1.3514368729      0.0000000000
1.2645573109         1483.5520413183      0.3140000000      13.5362835545      1.3688574623      0.0000000000
1.2792847953         1392.3173784216      0.3160000000      13.5398313293      1.3862495282      0.0000000000
1.2939525071         1307.6221888238      0.3180000000      13.5433053736      1.4036086781      0.0000000000
1.3085570180         1228.9443771832      0.3200000000      13.5466979014      1.4209306225      0.0000000000
1.3230950179         1155.8071185253      0.3220000000      13.5500017116      1.4382111785      0.0000000000
1.3375633143         1087.7746702570      0.3240000000      13.5532100805      1.4554462701      0.0000000000
1.3519588329         1024.4485593035      0.3260000000      13.5563167802      1.4726319298      0.0000000000
1.3662786168          965.4642209930      0.3280000000      13.5593160960      1.4897642997      0.0000000000
1.3805198259          910.4878671322      0.3300000000      13.5622027137      1.5068396318      0.0000000000
1.3946797367          859.2137524544      0.3320000000      13.5649717903      1.5238542892      0.0000000000
1.4087557407          811.3616201255      0.3340000000      13.5676188439      1.5408047451      0.0000000000
1.4227453444          766.6743759510      0.3360000000      13.5701398141      1.5576875853      0.0000000000
1.4366461671          724.9161113484      0.3380000000      13.5725310303      1.5744995058      0.0000000000
1.4504559404          685.8701997769      0.3400000000      13.5747891478      1.5912373139      0.0000000000
1.4641725060          649.3375402542      0.3420000000      13.5769111414      1.6078979277      0.0000000000
1.4777938149          615.1351532710      0.3440000000      13.5788943604      1.6244783752      0.0000000000
1.4913179250          583.0946523204      0.3460000000      13.5807364045      1.6409757937      0.0000000000
1.5047430033          553.0610573852      0.3480000000      13.5824351972      1.6573874335      0.0000000000
1.5180673109          524.8916222348      0.3500000000      13.5839889190      1.6737106410      0.0000000000
1.5312892199          498.4547806458      0.3520000000      13.5853960104      1.6899428806      0.0000000000
1.5444071989          473.6292428627      0.3540000000      13.5866551536      1.7060817183      0.0000000000
1.5574198146          450.3030621345      0.3560000000      13.5877652912      1.7221248250      0.0000000000
1.5703257289          428.3728957978      0.3580000000      13.5887255352      1.7380699740      0.0000000000
1.5831236971          407.7433102690      0.3600000000      13.5895352391      1.7539150403      0.0000000000
1.5958125660          388.3260554471      0.3620000000      13.5901939648      1.7696579992      0.0000000000
1.6083912707          370.0395454834      0.3640000000      13.5907014065      1.7852969237      0.0000000000
1.6208588336          352.8082897701      0.3660000000      13.5910574801      1.8008299842      0.0000000000
1.6332143612          336.5623594320      0.3680000000      13.5912622329      1.8162554460      0.0000000000
1.6454570421          321.2370149376      0.3700000000      13.5913159095      1.8315716679      0.0000000000
1.6575861447          306.7722177196      0.3720000000      13.5912188208      1.8467770995      0.0000000000
1.6696010147          293.1123186420      0.3740000000      13.5909715080      1.8618702806      0.0000000000
1.6815010731          280.2056438575      0.3760000000      13.5905745451      1.8768498386      0.0000000000
1.6932858136          268.0042450456      0.3780000000      13.5900287060      1.8917144866      0.0000000000
1.7049547984          256.4635650388      0.3800000000      13.5893348075      1.9064630191      0.0000000000
1.7165076639          245.5422057109      0.3820000000      13.5884938059      1.9210943201      0.0000000000
1.7279441067          235.2016523242      0.3840000000      13.5875067499      1.9356073461      0.0000000000
1.7392638887          225.4060794657      0.3860000000      13.5863747639      1.9500011338      0.0000000000
1.7504668337          216.1221327597      0.3880000000      13.5850990677      1.9642747961      0.0000000000
1.7615528243          207.3187487692      0.3900000000      13.5836809489      1.9784275197      0.0000000000
1.7725218007          198.9669723294      0.3920000000      13.5821217533      1.9924585632      0.0000000000
1.7833737574          191.0398184505      0.3940000000      13.5804229104      2.0063672553      0.0000000000
1.7941087426          183.5121021285      0.3960000000      13.5785859139      2.0201529927      0.0000000000
1.8047268547          176.3603219580      0.3980000000      13.5766122762      2.0338152381      0.0000000000
1.8152282408          169.5625323268      0.4000000000      13.5745035939      2.0473535183      0.0000000000
1.8256130951          163.0982304104      0.4020000000      13.5722614956      2.0607674219      0.0000000000
1.8358816563          156.9482525080      0.4040000000      13.5698876524      2.0740565982      0.0000000000
1.8460342061          151.0946718870      0.4060000000      13.5673837454      2.0872207542      0.0000000000
1.8560710671          145.5207193797      0.4080000000      13.5647515417      2.1002596538      0.0000000000
1.8659926012          140.2106990371      0.4100000000      13.5619927828      2.1131731152      0.0000000000
1.8757992076          135.1499054907      0.4120000000      13.5591092711      2.1259610094      0.0000000000
1.8854913211          130.3245670899      0.4140000000      13.5561028137      2.1386232581      0.0000000000
1.8950694105          125.7217700800      0.4160000000      13.5529752481      2.1511598323      0.0000000000
1.9045339767          121.3293961659      0.4180000000      13.5497284104      2.1635707503      0.0000000000
1.9138855514          117.1360874886      0.4200000000      13.5463641570      2.1758560761      0.0000000000
1.9231246953          113.1311730812      0.4220000000      13.5428843675      2.1880159173      0.0000000000
1.9322519966          109.3046377905      0.4240000000      13.5392909124      2.2000504244      0.0000000000
1.9412680699          105.6470585763      0.4260000000      13.5355856762      2.2119597882      0.0000000000
1.9501735540          102.1495967686      0.4280000000      13.5317705470      2.2237442385      0.0000000000
1.9589691111           98.8039248465      0.4300000000      13.5278474108      2.2354040428      0.0000000000
1.9676554254           95.6022161969      0.4320000000      13.5238181590      2.2469395047      0.0000000000
1.9762332015           92.5370985611      0.4340000000      13.5196846711      2.2583509621      0.0000000000
1.9847031634           89.6016353618      0.4360000000      13.5154488433      2.2696387860      0.0000000000
1.9930660533           86.7892875311      0.4380000000      13.5111125306      2.2808033793      0.0000000000
2.0013226299           84.0938964437      0.4400000000      13.5066776090      2.2918451745      0.0000000000
2.0094736681           81.5096522553      0.4420000000      13.5021459468      2.3027646338      0.0000000000
2.0175199574           79.0310752214      0.4440000000      13.4975194003      2.3135622468      0.0000000000
2.0254623005           76.6529959956      0.4460000000      13.4927997946      2.3242385288      0.0000000000
2.0333015129           74.3705357074      0.4480000000      13.4879889637      2.3347940209      0.0000000000
2.0410384219           72.1790837448      0.4500000000      13.4830887343      2.3452292878      0.0000000000
2.0486738649           70.0742856200      0.4520000000      13.4781009043      2.3555449167      0.0000000000
2.0562086896           68.0520271162      0.4540000000      13.4730272671      2.3657415167      0.0000000000
