# M(M_sol)                 Lambda          n_Bc(fm^-3)         R(km)            m_B(M_sol)        m_Bquar/M_B
0.1536756410     48831578.2008067369      0.0840000000      24.0783528373      0.1539718857      0.0000000000
0.1612828028     39047568.8601625040      0.0860000000      22.9355297967      0.1616922980      0.0000000000
0.1690405343     31550443.8768501617      0.0880000000      21.9863978130      0.1695736487      0.0000000000
0.1769379035     25718934.5603399277      0.0900000000      21.1879838671      0.1776051876      0.0000000000
0.1849652640     21127727.4190871492      0.0920000000      20.5089522245      0.1857774425      0.0000000000
0.1931140315     17476020.3671219610      0.0940000000      19.9259374506      0.1940819959      0.0000000000
0.2013765166     14545872.4495499153      0.0960000000      19.4211817730      0.2025113178      0.0000000000
0.2097458010     12176306.4163427558      0.0980000000      18.9809590519      0.2110586432      0.0000000000
0.2182156433     10246584.3810072448      0.1000000000      18.5945009396      0.2197178780      0.0000000000
0.2267804020      8664989.7358084861      0.1020000000      18.2532500693      0.2284835235      0.0000000000
0.2354349710      7361073.2095660670      0.1040000000      17.9503238996      0.2373506120      0.0000000000
0.2441747307      6280205.1405362487      0.1060000000      17.6801287695      0.2463146592      0.0000000000
0.2529955042      5379664.1801305171      0.1080000000      17.4380761596      0.2553716216      0.0000000000
0.2618935157      4625779.4896698082      0.1100000000      17.2203678716      0.2645178548      0.0000000000
0.2708653575      3991832.3771292269      0.1120000000      17.0238367087      0.2737500818      0.0000000000
0.2797691347      3464005.8987355926      0.1140000000      16.8484092900      0.2829222753      0.0000000000
0.2885615217      3023478.6624859329      0.1160000000      16.6917380425      0.2919894849      0.0000000000
0.2973135463      2650402.4842447578      0.1180000000      16.5499907147      0.3010246938      0.0000000000
0.3060440057      2332094.0181098906      0.1200000000      16.4209454992      0.3100471953      0.0000000000
0.3147629039      2058934.0423281176      0.1220000000      16.3029034172      0.3190672666      0.0000000000
0.3234768227      1823355.0432867473      0.1240000000      16.1944904012      0.3280916848      0.0000000000
0.3321906544      1619293.4326123435      0.1260000000      16.0945672676      0.3371255053      0.0000000000
0.3409083395      1441829.1060286814      0.1280000000      16.0021739185      0.3461728190      0.0000000000
0.3496332310      1286933.6732546696      0.1300000000      15.9164928543      0.3552371250      0.0000000000
0.3583683012      1151282.5405131457      0.1320000000      15.8368221296      0.3643215426      0.0000000000
0.3671162590      1032113.8726152928      0.1340000000      15.7625544338      0.3734289318      0.0000000000
0.3758796253       927120.2738977127      0.1360000000      15.6931621347      0.3825619697      0.0000000000
0.3846607759       834363.6719880742      0.1380000000      15.6281836460      0.3917231946      0.0000000000
0.3934619726       752208.3681207508      0.1400000000      15.5672137095      0.4009150382      0.0000000000
0.4022853876       679267.5822489805      0.1420000000      15.5098949665      0.4101398495      0.0000000000
0.4111331119       614361.0947052343      0.1440000000      15.4559113053      0.4193999040      0.0000000000
0.4200071625       556480.3658250858      0.1460000000      15.4049818053      0.4286974104      0.0000000000
0.4289094941       504760.4445815142      0.1480000000      15.3568562566      0.4380345224      0.0000000000
0.4378419970       458457.0465539649      0.1500000000      15.3113110601      0.4474133370      0.0000000000
0.4468065006       416927.6360317621      0.1520000000      15.2681457510      0.4568358967      0.0000000000
0.4558047744       379615.8681428392      0.1540000000      15.2271802416      0.4663041912      0.0000000000
0.4648385276       346038.5985123320      0.1560000000      15.1882523249      0.4758201564      0.0000000000
0.4739094079       315775.0702768500      0.1580000000      15.1512154640      0.4853856732      0.0000000000
0.4830190024       288457.8977959315      0.1600000000      15.1159370203      0.4950025674      0.0000000000
0.4921688329       263765.5647391325      0.1620000000      15.0822966634      0.5046726055      0.0000000000
0.5013603651       241415.8960273347      0.1640000000      15.0501849974      0.5143975033      0.0000000000
0.5105949787       221160.7923827370      0.1660000000      15.0195024274      0.5241788948      0.0000000000
0.5198740036       202781.5808529790      0.1680000000      14.9901578641      0.5340183694      0.0000000000
0.5291986952       186085.1299268316      0.1700000000      14.9620681994      0.5439174461      0.0000000000
0.5385702376       170900.5026918795      0.1720000000      14.9351571219      0.5538775763      0.0000000000
0.5479897418       157076.1323598707      0.1740000000      14.9093546116      0.5639001417      0.0000000000
0.5574582457       144477.3753815636      0.1760000000      14.8845962844      0.5739864538      0.0000000000
0.5669767117       132984.4083402709      0.1780000000      14.8608228244      0.5841377512      0.0000000000
0.5765460244       122490.4152199817      0.1800000000      14.8379794080      0.5943551967      0.0000000000
0.5861669906       112900.0120068762      0.1820000000      14.8160153916      0.6046398769      0.0000000000
0.5958403388       104127.8714659385      0.1840000000      14.7948837643      0.6149928012      0.0000000000
0.6055667157        96097.5991512399      0.1860000000      14.7745410266      0.6254148980      0.0000000000
0.6153466882        88740.6456299586      0.1880000000      14.7549466791      0.6359070160      0.0000000000
0.6251807398        81995.4380406970      0.1900000000      14.7360629980      0.6464699203      0.0000000000
0.6350692722        75806.5839096798      0.1920000000      14.7178547633      0.6571042933      0.0000000000
0.6450126028        70124.2060355822      0.1940000000      14.7002891106      0.6678107319      0.0000000000
0.6550109808        64903.3012383324      0.1960000000      14.6833352575      0.6785897641      0.0000000000
0.6650645270        60103.2700066052      0.1980000000      14.6669643266      0.6894417835      0.0000000000
0.6751733220        55687.3830094063      0.2000000000      14.6511492316      0.7003671447      0.0000000000
0.6853373463        51622.4140062981      0.2020000000      14.6358643930      0.7113660970      0.0000000000
0.6955564972        47878.2602162061      0.2040000000      14.6210857544      0.7224388029      0.0000000000
0.7058305876        44427.6238712212      0.2060000000      14.6067906221      0.7335853363      0.0000000000
0.7161593474        41245.7217090834      0.2080000000      14.5929575169      0.7448056830      0.0000000000
0.7265424222        38310.0400138812      0.2100000000      14.5795660622      0.7560997390      0.0000000000
0.7369793759        35600.1009006579      0.2120000000      14.5665969702      0.7674673126      0.0000000000
0.7474696903        33097.2613285976      0.2140000000      14.5540318565      0.7789081236      0.0000000000
0.7580127664        30784.5434766159      0.2160000000      14.5418532540      0.7904218040      0.0000000000
0.7686079257        28646.4626481477      0.2180000000      14.5300445294      0.8020078987      0.0000000000
0.7792544108        26668.8893025578      0.2200000000      14.5185897615      0.8136658660      0.0000000000
0.7899513871        24838.9226555797      0.2220000000      14.5074737576      0.8253950779      0.0000000000
0.8006979442        23144.7709840197      0.2240000000      14.4966819397      0.8371948224      0.0000000000
0.8114930972        21575.6525101978      0.2260000000      14.4862003545      0.8490643028      0.0000000000
0.8223357891        20121.6999626063      0.2280000000      14.4760156334      0.8610026410      0.0000000000
0.8332248913        18773.8794767296      0.2300000000      14.4661148984      0.8730088767      0.0000000000
0.8441591982        17523.9101699193      0.2320000000      14.4564856941      0.8850819609      0.0000000000
0.8551374628        16364.2031890730      0.2340000000      14.4471161887      0.8972207948      0.0000000000
0.8661583475        15287.7935593059      0.2360000000      14.4379947653      0.9094241749      0.0000000000
0.8772204612        14288.2912136543      0.2380000000      14.4291104210      0.9216908327      0.0000000000
0.8883223513        13359.8265789970      0.2400000000      14.4204523899      0.9340194264      0.0000000000
0.8994625085        12497.0048619355      0.2420000000      14.4120102768      0.9464085446      0.0000000000
0.9106393673        11694.8683329069      0.2440000000      14.4037741569      0.9588567069      0.0000000000
0.9218513092        10948.8550722373      0.2460000000      14.3957341911      0.9713623663      0.0000000000
0.9330966650        10254.7690235196      0.2480000000      14.3878810662      0.9839239120      0.0000000000
0.9443737183         9608.7458486255      0.2500000000      14.3802056582      0.9965396721      0.0000000000
0.9556807074         9007.2249517628      0.2520000000      14.3726991237      1.0092079153      0.0000000000
0.9670158278         8446.9277187496      0.2540000000      14.3653529069      1.0219268535      0.0000000000
0.9783772355         7924.8301098303      0.2560000000      14.3581586996      1.0346946446      0.0000000000
0.9897630503         7438.1429569625      0.2580000000      14.3511084498      1.0475093959      0.0000000000
1.0011713570         6984.2937051011      0.2600000000      14.3441943406      1.0603691651      0.0000000000
1.0126002096         6560.9075416899      0.2620000000      14.3374087375      1.0732719640      0.0000000000
1.0240476386         6165.7906902889      0.2640000000      14.3307443342      1.0862157672      0.0000000000
1.0355116348         5796.9187962755      0.2660000000      14.3241939430      1.0991984929      0.0000000000
1.0469901804         5452.4185096544      0.2680000000      14.3177506161      1.1122180375      0.0000000000
1.0584812329         5130.5603737754      0.2700000000      14.3114076391      1.1252722571      0.0000000000
1.0699827330         4829.7436737225      0.2720000000      14.3051584918      1.1383589767      0.0000000000
1.0814926065         4548.4882565850      0.2740000000      14.2989967708      1.1514759911      0.0000000000
1.0930087686         4285.4242525981      0.2760000000      14.2929163857      1.1646210701      0.0000000000
1.1045291251         4039.2834588247      0.2780000000      14.2869113387      1.1777919596      0.0000000000
1.1160515756         3808.8914104480      0.2800000000      14.2809758654      1.1909863850      0.0000000000
1.1275740166         3593.1603169829      0.2820000000      14.2751043725      1.2042020540      0.0000000000
1.1390943434         3391.0821641732      0.2840000000      14.2692913985      1.2174366593      0.0000000000
1.1506104530         3201.7226657278      0.2860000000      14.2635317418      1.2306878812      0.0000000000
1.1621202469         3024.2148242948      0.2880000000      14.2578202724      1.2439533912      0.0000000000
1.1736216326         2857.7552655313      0.2900000000      14.2521521350      1.2572308533      0.0000000000
1.1851125263         2701.5983250945      0.2920000000      14.2465225343      1.2705179269      0.0000000000
1.1965908560         2555.0517448220      0.2940000000      14.2409269100      1.2838122705      0.0000000000
1.2080545631         2417.4727668755      0.2960000000      14.2353608034      1.2971115435      0.0000000000
1.2195016029         2288.2647712258      0.2980000000      14.2298199546      1.3104134070      0.0000000000
1.2309299501         2166.8730919355      0.3000000000      14.2243002621      1.3237155294      0.0000000000
1.2423375981         2052.7824284456      0.3020000000      14.2187977403      1.3370155869      0.0000000000
1.2537225615         1945.5138087352      0.3040000000      14.2133085569      1.3503112650      0.0000000000
1.2650828784         1844.6217411601      0.3060000000      14.2078290674      1.3636002625      0.0000000000
1.2764166117         1749.6917882801      0.3080000000      14.2023557303      1.3768802923      0.0000000000
1.2877218508         1660.3384942603      0.3100000000      14.1968851537      1.3901490840      0.0000000000
1.2989967130         1576.2028982951      0.3120000000      14.1914140903      1.4034043856      0.0000000000
1.3102393455         1496.9508938405      0.3140000000      14.1859394154      1.4166439657      0.0000000000
1.3214479259         1422.2713224659      0.3160000000      14.1804581527      1.4298656148      0.0000000000
1.3326206646         1351.8742133291      0.3180000000      14.1749674598      1.4430671479      0.0000000000
1.3437558050         1285.4894381886      0.3200000000      14.1694645953      1.4562464049      0.0000000000
1.3548516253         1222.8649811768      0.3220000000      14.1639469780      1.4694012537      0.0000000000
1.3659064388         1163.7661441730      0.3240000000      14.1584121169      1.4825295898      0.0000000000
1.3769185959         1107.9737322490      0.3260000000      14.1528576822      1.4956293398      0.0000000000
1.3878864839         1055.2833705012      0.3280000000      14.1472813978      1.5086984608      0.0000000000
1.3988085286         1005.5042693767      0.3300000000      14.1416811708      1.5217349430      0.0000000000
1.4096831943          958.4582839407      0.3320000000      14.1360549585      1.5347368101      0.0000000000
1.4205089853          913.9789851245      0.3340000000      14.1304008945      1.5477021212      0.0000000000
1.4312844454          871.9110020310      0.3360000000      14.1247171750      1.5606289705      0.0000000000
1.4420081593          832.1090391909      0.3380000000      14.1190020839      1.5735154892      0.0000000000
1.4526787525          794.4373380239      0.3400000000      14.1132540500      1.5863598465      0.0000000000
1.4632948918          758.7689090196      0.3420000000      14.1074715835      1.5991602496      0.0000000000
1.4738552856          724.9849849185      0.3440000000      14.1016532944      1.6119149449      0.0000000000
1.4843586836          692.9744492313      0.3460000000      14.0957978573      1.6246222184      0.0000000000
1.4948038781          662.6332568698      0.3480000000      14.0899040688      1.6372803967      0.0000000000
1.5051897026          633.8640435021      0.3500000000      14.0839708108      1.6498878468      0.0000000000
1.5155150331          606.5755921695      0.3520000000      14.0779970558      1.6624429771      0.0000000000
1.5257787872          580.6824227391      0.3540000000      14.0719818114      1.6749442374      0.0000000000
1.5359799243          556.1045324380      0.3560000000      14.0659242233      1.6873901193      0.0000000000
1.5461174459          532.7667618020      0.3580000000      14.0598235140      1.6997791568      0.0000000000
1.5561903946          510.5987822525      0.3600000000      14.0536789313      1.7121099260      0.0000000000
1.5661978539          489.5345505327      0.3620000000      14.0474898292      1.7243810445      0.0000000000
1.5761389488          469.5120968513      0.3640000000      14.0412556345      1.7365911735      0.0000000000
1.5860128448          450.4732839074      0.3660000000      14.0349758298      1.7487390161      0.0000000000
1.5958187475          432.3634847356      0.3680000000      14.0286499695      1.7608233177      0.0000000000
1.6055559024          415.1314630736      0.3700000000      14.0222776576      1.7728428661      0.0000000000
1.6152235943          398.7290019558      0.3720000000      14.0158585886      1.7847964914      0.0000000000
1.6248211472          383.1108573872      0.3740000000      14.0093924804      1.7966830653      0.0000000000
1.6343479230          368.2344525340      0.3760000000      14.0028791292      1.8085015015      0.0000000000
1.6438033219          354.0597818507      0.3780000000      13.9963183633      1.8202507549      0.0000000000
1.6531867815          340.5491751636      0.3800000000      13.9897101029      1.8319298221      0.0000000000
1.6624977757          327.6672330199      0.3820000000      13.9830542738      1.8435377401      0.0000000000
1.6717358149          315.3805950941      0.3840000000      13.9763508830      1.8550735865      0.0000000000
1.6809004448          303.6578827736      0.3860000000      13.9695999443      1.8665364790      0.0000000000
1.6899912461          292.4695302871      0.3880000000      13.9628015576      1.8779255750      0.0000000000
1.6990078336          281.7876945514      0.3900000000      13.9559558422      1.8892400710      0.0000000000
1.7079498557          271.5861013489      0.3920000000      13.9490629369      1.9004792022      0.0000000000
1.7168169938          261.8400262846      0.3940000000      13.9421230712      1.9116422421      0.0000000000
1.7256089611          252.5261431658      0.3960000000      13.9351364641      1.9227285018      0.0000000000
1.7343255026          243.6224331081      0.3980000000      13.9281033848      1.9337373298      0.0000000000
1.7429663939          235.1081298039      0.4000000000      13.9210241271      1.9446681107      0.0000000000
1.7515314404          226.9636406476      0.4020000000      13.9138990255      1.9555202654      0.0000000000
1.7600204773          219.1704662350      0.4040000000      13.9067284492      1.9662932501      0.0000000000
1.7684333681          211.7111205953      0.4060000000      13.8995127933      1.9769865560      0.0000000000
1.7767700039          204.5691109060      0.4080000000      13.8922524456      1.9875997081      0.0000000000
1.7850303034          197.7288223573      0.4100000000      13.8849478667      1.9981322652      0.0000000000
1.7932142112          191.1755296590      0.4120000000      13.8775994970      2.0085838185      0.0000000000
1.8013216980          184.8952731186      0.4140000000      13.8702078419      2.0189539924      0.0000000000
1.8093527591          178.8748751275      0.4160000000      13.8627733912      2.0292424419      0.0000000000
1.8173074141          173.1018656987      0.4180000000      13.8552966734      2.0394488533      0.0000000000
1.8251857062          167.5644227230      0.4200000000      13.8477782208      2.0495729434      0.0000000000
1.8329877012          162.2513878557      0.4220000000      13.8402185990      2.0596144579      0.0000000000
1.8407134870          157.1521719863      0.4240000000      13.8326183696      2.0695731720      0.0000000000
1.8483631730          152.2567469884      0.4260000000      13.8249781316      2.0794488890      0.0000000000
1.8559368890          147.5556229357      0.4280000000      13.8172984772      2.0892414395      0.0000000000
1.8634347850          143.0397941834      0.4300000000      13.8095800142      2.0989506812      0.0000000000
1.8708570302          138.7007306359      0.4320000000      13.8018233666      2.1085764979      0.0000000000
1.8782038125          134.5303398203      0.4340000000      13.7940291734      2.1181187989      0.0000000000
1.8854753374          130.5209471827      0.4360000000      13.7861980674      2.1275775185      0.0000000000
1.8926718283          126.6652654603      0.4380000000      13.7783307048      2.1369526151      0.0000000000
1.8997935248          122.9563906367      0.4400000000      13.7704277454      2.1462440706      0.0000000000
1.9068406826          119.3877528128      0.4420000000      13.7624898422      2.1554518899      0.0000000000
