# M(M_sol)                 Lambda          n_Bc(fm^-3)         R(km)            m_B(M_sol)        m_Bquar/M_B
0.1518590507     32163514.5951337852      0.1180000000      21.6540103400      0.1520669574      0.0000000000
0.1559559637     27942864.1884459108      0.1200000000      21.0295259087      0.1562189908      0.0000000000
0.1601263604     24350737.6737520210      0.1220000000      20.4649348957      0.1604480812      0.0000000000
0.1643709727     21278813.8311403319      0.1240000000      19.9522893045      0.1647551020      0.0000000000
0.1686898358     18641145.9735131264      0.1260000000      19.4850703575      0.1691402233      0.0000000000
0.1730826012     16368413.4783751387      0.1280000000      19.0578397700      0.1736032280      0.0000000000
0.1775487126     14404046.2735346612      0.1300000000      18.6660094046      0.1781436889      0.0000000000
0.1820874702     12701453.1684477702      0.1320000000      18.3056724427      0.1827610337      0.0000000000
0.1866980836     11221960.1836798117      0.1340000000      17.9734753477      0.1874545985      0.0000000000
0.1913796989      9933286.7854532171      0.1360000000      17.6665225477      0.1922236542      0.0000000000
0.1961314122      8808328.8221201580      0.1380000000      17.3822974251      0.1970674213      0.0000000000
0.2009522964      7824234.7108664615      0.1400000000      17.1186029663      0.2019850956      0.0000000000
0.2058413900      6961659.0440592570      0.1420000000      16.8735110073      0.2069758377      0.0000000000
0.2107977168      6204165.6533914292      0.1440000000      16.6453224796      0.2120387925      0.0000000000
0.2158202850      5537747.0374982534      0.1460000000      16.4325337186      0.2171730880      0.0000000000
0.2209080952      4950429.8376855403      0.1480000000      16.2338096287      0.2223778438      0.0000000000
0.2260601459      4431954.8954155082      0.1500000000      16.0479604553      0.2276521757      0.0000000000
0.2312754302      3973506.0729209245      0.1520000000      15.8739221612      0.2329951939      0.0000000000
0.2365529276      3567494.4820752037      0.1540000000      15.7107412077      0.2384059925      0.0000000000
0.2418916336      3207369.9995513912      0.1560000000      15.5575598213      0.2438836813      0.0000000000
0.2472905466      2887469.2435909342      0.1580000000      15.4136045351      0.2494273715      0.0000000000
0.2527486628      2602885.9921462568      0.1600000000      15.2781765733      0.2550361710      0.0000000000
0.2582649792      2349360.0656494414      0.1620000000      15.1506416555      0.2607091870      0.0000000000
0.2638385102      2123189.8236134993      0.1640000000      15.0304253954      0.2664455426      0.0000000000
0.2694682710      1921148.8273164546      0.1660000000      14.9170037692      0.2722443609      0.0000000000
0.2751532764      1740424.0365813740      0.1680000000      14.8098997385      0.2781047628      0.0000000000
0.2808925770      1578555.9887395771      0.1700000000      14.7086769892      0.2840259043      0.0000000000
0.2866852071      1433392.7481313867      0.1720000000      14.6129363052      0.2900069232      0.0000000000
0.2925302241      1303048.2372971945      0.1740000000      14.5223116986      0.2960469795      0.0000000000
0.2984266785      1185866.8999357410      0.1760000000      14.4364670646      0.3021452244      0.0000000000
0.3043736518      1080393.3562457168      0.1780000000      14.3550932672      0.3083008394      0.0000000000
0.3103702217       985346.2969736742      0.1800000000      14.2779052186      0.3145130004      0.0000000000
0.3164154840       899596.2389360396      0.1820000000      14.2046398724      0.3207809004      0.0000000000
0.3225085431       822146.7496047976      0.1840000000      14.1350546888      0.3271037394      0.0000000000
0.3286485163       752116.7866881704      0.1860000000      14.0689249675      0.3334807293      0.0000000000
0.3348345299       688726.8591734023      0.1880000000      14.0060426859      0.3399110893      0.0000000000
0.3410657144       631285.8722386274      0.1900000000      13.9462143677      0.3463940416      0.0000000000
0.3473412217       579181.2925517068      0.1920000000      13.8892611103      0.3529288286      0.0000000000
0.3536602076       531868.7607183006      0.1940000000      13.8350162096      0.3595146950      0.0000000000
0.3600218366       488864.1236851479      0.1960000000      13.7833244504      0.3661508929      0.0000000000
0.3664252881       449736.5490268008      0.1980000000      13.7340415142      0.3728366881      0.0000000000
0.3728697443       414101.8043557364      0.2000000000      13.6870324011      0.3795713476      0.0000000000
0.3793544057       381617.2734303269      0.2020000000      13.6421717264      0.3863541556      0.0000000000
0.3858784677       351976.4883162804      0.2040000000      13.5993413614      0.3931843894      0.0000000000
0.3924411494       324905.8351117689      0.2060000000      13.5584318773      0.4000613489      0.0000000000
0.3990416660       300159.9971871606      0.2080000000      13.5193400640      0.4069843284      0.0000000000
0.4056792470       277519.2679580793      0.2100000000      13.4819694684      0.4139526353      0.0000000000
0.4123531263       256786.5078282437      0.2120000000      13.4462297231      0.4209655799      0.0000000000
0.4190625453       237784.6818997064      0.2140000000      13.4120359092      0.4280224784      0.0000000000
0.4258067522       220354.6383783507      0.2160000000      13.3793083409      0.4351226523      0.0000000000
0.4325850004       204353.1334226978      0.2180000000      13.3479719554      0.4422654267      0.0000000000
0.4393965501       189651.1668420598      0.2200000000      13.3179563253      0.4494501323      0.0000000000
0.4462406677       176132.4578185831      0.2220000000      13.2891951882      0.4566761039      0.0000000000
0.4531166215       163691.9864669550      0.2240000000      13.2616257564      0.4639426770      0.0000000000
0.4600236867       152234.9525099974      0.2260000000      13.2351891985      0.4712491920      0.0000000000
0.4669611414       141675.6151925254      0.2280000000      13.2098297797      0.4785949908      0.0000000000
0.4739282713       131936.4326872308      0.2300000000      13.1854952248      0.4859794212      0.0000000000
0.4809243622       122947.1233941217      0.2320000000      13.1621358404      0.4934018293      0.0000000000
0.4879487008       114643.9472501936      0.2340000000      13.1397045319      0.5008615601      0.0000000000
0.4950005847       106969.1583098754      0.2360000000      13.1181572317      0.5083579683      0.0000000000
0.5020793082        99870.2642045289      0.2380000000      13.0974519117      0.5158904027      0.0000000000
0.5091841692        93299.5616167808      0.2400000000      13.0775488238      0.5234582145      0.0000000000
0.5163144669        87213.6371930663      0.2420000000      13.0584101155      0.5310607539      0.0000000000
0.5234695056        81573.0289222062      0.2440000000      13.0400003123      0.5386973745      0.0000000000
0.5306485894        76341.7463827858      0.2460000000      13.0222855051      0.5463674275      0.0000000000
0.5378510241        71486.9859708178      0.2480000000      13.0052335677      0.5540702642      0.0000000000
0.5450761175        66978.8118831506      0.2500000000      12.9888139882      0.5618052353      0.0000000000
0.5523231769        62789.8778440011      0.2520000000      12.9729977153      0.5695716894      0.0000000000
0.5595915132        58895.2202521411      0.2540000000      12.9577572800      0.5773689763      0.0000000000
0.5668804374        55271.9964780695      0.2560000000      12.9430665234      0.5851964441      0.0000000000
0.5741892587        51899.2816145250      0.2580000000      12.9289003547      0.5930534365      0.0000000000
0.5815172912        48757.9475898904      0.2600000000      12.9152351750      0.6009393004      0.0000000000
0.5888638471        45830.4395674864      0.2620000000      12.9020483592      0.6088533781      0.0000000000
0.5962282404        43100.6722787127      0.2640000000      12.8893184529      0.6167950115      0.0000000000
0.6036097832        40553.8637151679      0.2660000000      12.8770247510      0.6247635386      0.0000000000
0.6110077912        38176.4644788268      0.2680000000      12.8651478837      0.6327582985      0.0000000000
0.6184215791        35956.0108085133      0.2700000000      12.8536691416      0.6407786270      0.0000000000
0.6258504605        33881.0310307250      0.2720000000      12.8425706180      0.6488238561      0.0000000000
0.6332937532        31940.9919197537      0.2740000000      12.8318354583      0.6568933200      0.0000000000
0.6407507715        30126.1790619060      0.2760000000      12.8214473465      0.6649863469      0.0000000000
0.6482208316        28427.6456171422      0.2780000000      12.8113907701      0.6731022643      0.0000000000
0.6557032505        26837.1462083126      0.2800000000      12.8016509019      0.6812403980      0.0000000000
0.6631973470        25347.0803913496      0.2820000000      12.7922136837      0.6894000732      0.0000000000
0.6707024371        23950.4197273681      0.2840000000      12.7830654233      0.6975806099      0.0000000000
0.6782178401        22640.6848111398      0.2860000000      12.7741932468      0.7057813287      0.0000000000
0.6857428744        21411.8779786146      0.2880000000      12.7655845789      0.7140015465      0.0000000000
0.6932768621        20258.4694315369      0.2900000000      12.7572278084      0.7222405819      0.0000000000
0.7008191224        19175.3282437173      0.2920000000      12.7491113808      0.7304977476      0.0000000000
0.7083689776        18157.7116588722      0.2940000000      12.7412244172      0.7387723568      0.0000000000
0.7159257511        17201.2270581718      0.2960000000      12.7335565110      0.7470637215      0.0000000000
0.7234887667        16301.8043191116      0.2980000000      12.7260976276      0.7553711513      0.0000000000
0.7310573509        15455.6703071456      0.3000000000      12.7188382443      0.7636939556      0.0000000000
0.7386308301        14659.3223444753      0.3020000000      12.7117690975      0.7720314417      0.0000000000
0.7462085336        13909.5129149246      0.3040000000      12.7048814016      0.7803829166      0.0000000000
0.7537897919        13203.2246067022      0.3060000000      12.6981666834      0.7887476862      0.0000000000
0.7613739374        12537.6546693912      0.3080000000      12.6916168287      0.7971250555      0.0000000000
0.7689603054        11910.1987864547      0.3100000000      12.6852240649      0.8055143299      0.0000000000
0.7765482324        11318.4338291062      0.3120000000      12.6789809136      0.8139148133      0.0000000000
0.7841370576        10760.1055809501      0.3140000000      12.6728801647      0.8223258097      0.0000000000
0.7917261227        10233.1156728607      0.3160000000      12.6669149253      0.8307466231      0.0000000000
0.7993147730         9735.5120009328      0.3180000000      12.6610786232      0.8391765583      0.0000000000
0.8069023556         9265.4719699212      0.3200000000      12.6553648536      0.8476149195      0.0000000000
0.8144882211         8821.3004219844      0.3220000000      12.6497675289      0.8560610118      0.0000000000
0.8220717234         8401.4135941645      0.3240000000      12.6442807571      0.8645141409      0.0000000000
0.8296522203         8004.3369362792      0.3260000000      12.6388989621      0.8729736140      0.0000000000
0.8372290723         7628.6915138553      0.3280000000      12.6336166811      0.8814387385      0.0000000000
0.8448016441         7273.1906971446      0.3300000000      12.6284287103      0.8899088234      0.0000000000
0.8523693035         6936.6309765709      0.3320000000      12.6233299936      0.8983831785      0.0000000000
0.8599314239         6617.8904116861      0.3340000000      12.6183157434      0.9068611166      0.0000000000
0.8674873823         6315.9185056129      0.3360000000      12.6133813588      0.9153419516      0.0000000000
0.8750365605         6029.7334182312      0.3380000000      12.6085224462      0.9238250000      0.0000000000
0.8825783440         5758.4149872142      0.3400000000      12.6037346550      0.9323095796      0.0000000000
0.8901121236         5501.1024992639      0.3420000000      12.5990138687      0.9407950111      0.0000000000
0.8976372946         5256.9895510126      0.3440000000      12.5943561048      0.9492806173      0.0000000000
0.9051532581         5025.3215004923      0.3460000000      12.5897575944      0.9577657246      0.0000000000
0.9126594211         4805.3914899691      0.3480000000      12.5852147641      0.9662496633      0.0000000000
0.9201551957         4596.5350387234      0.3500000000      12.5807240115      0.9747317664      0.0000000000
0.9276399960         4398.1297832203      0.3520000000      12.5762819419      0.9832113663      0.0000000000
0.9351132468         4209.5924967863      0.3540000000      12.5718854017      0.9916878049      0.0000000000
0.9425743756         4030.3738218936      0.3560000000      12.5675311389      1.0001604239      0.0000000000
0.9500228185         3859.9606034659      0.3580000000      12.5632163082      1.0086285719      0.0000000000
0.9574580147         3697.8673916445      0.3600000000      12.5589378272      1.0170915987      0.0000000000
0.9648794121         3543.6413587049      0.3620000000      12.5546930631      1.0255488606      0.0000000000
0.9722864642         3396.8551919613      0.3640000000      12.5504793395      1.0339997178      0.0000000000
0.9796786310         3257.1074232864      0.3660000000      12.5462941041      1.0424435349      0.0000000000
0.9870553781         3124.0194311612      0.3680000000      12.5421348042      1.0508796804      0.0000000000
0.9944161797         2997.2365067178      0.3700000000      12.5379991515      1.0593075297      0.0000000000
1.0017605158         2876.4237506399      0.3720000000      12.5338848497      1.0677264621      0.0000000000
1.0090878736         2761.2663523122      0.3740000000      12.5297897377      1.0761358625      0.0000000000
1.0163977472         2651.4673791620      0.3760000000      12.5257117301      1.0845351212      0.0000000000
1.0236896379         2546.7468861491      0.3780000000      12.5216487781      1.0929236337      0.0000000000
1.0309630542         2446.8414701034      0.3800000000      12.5175989500      1.1013008017      0.0000000000
1.0382175125         2351.5026728430      0.3820000000      12.5135604333      1.1096660328      0.0000000000
1.0454525364         2260.4962794117      0.3840000000      12.5095314688      1.1180187409      0.0000000000
1.0526676560         2173.6005140281      0.3860000000      12.5055102702      1.1263583446      0.0000000000
1.0598624105         2090.6071931361      0.3880000000      12.5014952851      1.1346842704      0.0000000000
1.0670363461         2011.3191643293      0.3900000000      12.4974849286      1.1429959505      0.0000000000
1.0741890159         1935.5500293631      0.3920000000      12.4934776682      1.1512928230      0.0000000000
1.0813199825         1863.1243289739      0.3940000000      12.4894721021      1.1595743338      0.0000000000
1.0884288147         1793.8758128079      0.3960000000      12.4854668518      1.1678399345      0.0000000000
1.0955150899         1727.6473627028      0.3980000000      12.4814605614      1.1760890837      0.0000000000
1.1025783933         1664.2906870666      0.4000000000      12.4774520172      1.1843212474      0.0000000000
1.1096183187         1603.6655127724      0.4020000000      12.4734400414      1.1925358984      0.0000000000
1.1166344668         1545.6389219676      0.4040000000      12.4694234624      1.2007325162      0.0000000000
1.1236264460         1490.0847454172      0.4060000000      12.4654010879      1.2089105869      0.0000000000
1.1305938749         1436.8847509488      0.4080000000      12.4613720265      1.2170696060      0.0000000000
1.1375363780         1385.9258479023      0.4100000000      12.4573351978      1.2252090740      0.0000000000
1.1444535886         1337.1013573167      0.4120000000      12.4532896273      1.2333284997      0.0000000000
1.1513451487         1290.3104635524      0.4140000000      12.4492345035      1.2414274000      0.0000000000
1.1582107069         1245.4568840229      0.4160000000      12.4451688190      1.2495052974      0.0000000000
1.1650499213         1202.4501268374      0.4180000000      12.4410918465      1.2575617239      0.0000000000
1.1718624577         1161.2041443489      0.4200000000      12.4370028143      1.2655962185      0.0000000000
1.1786479898         1121.6372089817      0.4220000000      12.4329009592      1.2736083274      0.0000000000
1.1854061989         1083.6715896465      0.4240000000      12.4287855188      1.2815976042      0.0000000000
1.1921367757         1047.2341541590      0.4260000000      12.4246559197      1.2895636117      0.0000000000
1.1988394176         1012.2549736269      0.4280000000      12.4205114920      1.2975059190      0.0000000000
1.2055138307          978.6677036362      0.4300000000      12.4163516029      1.3054241034      0.0000000000
1.2121597291          946.4096153200      0.4320000000      12.4121757489      1.3133177504      0.0000000000
1.2187768345          915.4208092335      0.4340000000      12.4079833725      1.3211864528      0.0000000000
1.2253648768          885.6445216397      0.4360000000      12.4037739646      1.3290298114      0.0000000000
1.2319235939          857.0268555311      0.4380000000      12.3995470660      1.3368474349      0.0000000000
1.2384527311          829.5163567115      0.4400000000      12.3953022025      1.3446389396      0.0000000000
1.2449520422          803.0644238062      0.4420000000      12.3910390211      1.3524039503      0.0000000000
1.2514212882          777.6245562632      0.4440000000      12.3867570913      1.3601420989      0.0000000000
1.2578602381          753.1526713205      0.4460000000      12.3824560772      1.3678530255      0.0000000000
1.2642686718          729.6066673433      0.4480000000      12.3781356134      1.3755363821      0.0000000000
1.2706463669          706.9466581581      0.4500000000      12.3737954044      1.3831918163      0.0000000000
1.2769931185          685.1345970838      0.4520000000      12.3694351796      1.3908189957      0.0000000000
1.2833087258          664.1341507562      0.4540000000      12.3650546385      1.3984175915      0.0000000000
1.2895929958          643.9109153741      0.4560000000      12.3606535869      1.4059872831      0.0000000000
1.2958457425          624.4319102013      0.4580000000      12.3562317509      1.4135277570      0.0000000000
1.3020667873          605.6658516541      0.4600000000      12.3517889697      1.4210387080      0.0000000000
1.3082559590          587.5828409313      0.4620000000      12.3473250369      1.4285198383      0.0000000000
1.3144130937          570.1544409258      0.4640000000      12.3428398145      1.4359708579      0.0000000000
1.3205380341          553.3534684169      0.4660000000      12.3383331405      1.4433914844      0.0000000000
1.3266306303          537.1540222192      0.4680000000      12.3338048868      1.4507814428      0.0000000000
1.3326907395          521.5314260866      0.4700000000      12.3292549594      1.4581404659      0.0000000000
1.3387182255          506.4620751745      0.4720000000      12.3246832565      1.4654682939      0.0000000000
1.3447129591          491.9234776675      0.4740000000      12.3200896945      1.4727646744      0.0000000000
1.3506748177          477.8941768887      0.4760000000      12.3154742336      1.4800293625      0.0000000000
