# M(M_sol)                 Lambda          n_Bc(fm^-3)         R(km)            m_B(M_sol)        m_Bquar/M_B
0.1540736205     44764566.4210208878      0.0890000000      23.5624140448      0.1543569151      0.0000000000
0.1610397154     36326680.1822837964      0.0910000000      22.5324289461      0.1614245913      0.0000000000
0.1681573344     29723526.2150581889      0.0930000000      21.6610880309      0.1686528825      0.0000000000
0.1754169098     24495859.4505562186      0.0950000000      20.9165307182      0.1760324329      0.0000000000
0.1828096618     20317250.5269077010      0.0970000000      20.2747265806      0.1835546628      0.0000000000
0.1903274798     16949646.8025080562      0.0990000000      19.7172280670      0.1912116493      0.0000000000
0.1979628258     14215994.6179904882      0.1010000000      19.2296521026      0.1989960298      0.0000000000
0.2057086646     11982548.7902078480      0.1030000000      18.8006289152      0.2069009330      0.0000000000
0.2135584105     10146996.4727631398      0.1050000000      18.4210601221      0.2149199250      0.0000000000
0.2215058827      8630232.7413574811      0.1070000000      18.0835839692      0.2230469657      0.0000000000
0.2295452711      7370539.7648271872      0.1090000000      17.7821847958      0.2312763753      0.0000000000
0.2376711074      6319381.1339723533      0.1110000000      17.5119016249      0.2396028052      0.0000000000
0.2458549670      5440589.6396445110      0.1130000000      17.2692623528      0.2479973299      0.0000000000
0.2539289399      4715740.5324330563      0.1150000000      17.0546920982      0.2562876122      0.0000000000
0.2619625870      4108054.5653697397      0.1170000000      16.8621893235      0.2645448235      0.0000000000
0.2699821571      3593789.9114645123      0.1190000000      16.6880923661      0.2727958439      0.0000000000
0.2779976131      3155736.2391152666      0.1210000000      16.5297915422      0.2810508839      0.0000000000
0.2860141356      2780582.3960318812      0.1230000000      16.3852238159      0.2893152644      0.0000000000
0.2940347985      2457778.9870169726      0.1250000000      16.2526996720      0.2975921550      0.0000000000
0.3020615745      2178840.1559571861      0.1270000000      16.1308072531      0.3058836013      0.0000000000
0.3100958027      1936869.7217769418      0.1290000000      16.0183520590      0.3141910040      0.0000000000
0.3181384363      1726215.5592286428      0.1310000000      15.9143135865      0.3225153707      0.0000000000
0.3261901781      1542212.5095651739      0.1330000000      15.8178127293      0.3308574557      0.0000000000
0.3342515713      1380987.8149434468      0.1350000000      15.7280881130      0.3392178514      0.0000000000
0.3423230504      1239307.2563149512      0.1370000000      15.6444759328      0.3475970415      0.0000000000
0.3504049796      1114457.5447159184      0.1390000000      15.5663949306      0.3559954399      0.0000000000
0.3584976714      1004151.6021846096      0.1410000000      15.4933334656      0.3644134088      0.0000000000
0.3666014081       906453.7138626032      0.1430000000      15.4248397390      0.3728512822      0.0000000000
0.3747164501       819719.0709887445      0.1450000000      15.3605131123      0.3813093734      0.0000000000
0.3828430435       742544.7773049463      0.1470000000      15.2999970378      0.3897879831      0.0000000000
0.3909814251       673730.3394884791      0.1490000000      15.2429732007      0.3982874043      0.0000000000
0.3991318275       612244.9362340202      0.1510000000      15.1891567255      0.4068079278      0.0000000000
0.4072944782       557200.8209289367      0.1530000000      15.1382917038      0.4153498412      0.0000000000
0.4154696040       507831.1255614852      0.1550000000      15.0901478259      0.4239134332      0.0000000000
0.4236574282       463471.6255261959      0.1570000000      15.0445171256      0.4324989909      0.0000000000
0.4318581749       423545.3890416762      0.1590000000      15.0012116382      0.4411068039      0.0000000000
0.4400720709       387550.0337016364      0.1610000000      14.9600607138      0.4497371671      0.0000000000
0.4482993201       355047.1861035733      0.1630000000      14.9209095175      0.4583903529      0.0000000000
0.4565401449       325653.1650470890      0.1650000000      14.8836169151      0.4670666548      0.0000000000
0.4647947541       299031.6232828703      0.1670000000      14.8480542133      0.4757663541      0.0000000000
0.4730633549       274886.9202274507      0.1690000000      14.8141038724      0.4844897323      0.0000000000
0.4813461437       252958.7689793527      0.1710000000      14.7816581234      0.4932370611      0.0000000000
0.4896433122       233017.5024513940      0.1730000000      14.7506182405      0.5020086090      0.0000000000
0.4979550417       214860.0705520521      0.1750000000      14.7208935086      0.5108046354      0.0000000000
0.5062815052       198306.6331193085      0.1770000000      14.6924004617      0.5196253923      0.0000000000
0.5146228638       183197.6134715691      0.1790000000      14.6650621809      0.5284711209      0.0000000000
0.5229792656       169391.1783889016      0.1810000000      14.6388075862      0.5373420502      0.0000000000
0.5313508474       156761.0804774919      0.1830000000      14.6135713131      0.5462383986      0.0000000000
0.5397377445       145194.6713121299      0.1850000000      14.5892924394      0.5551603844      0.0000000000
0.5481400351       134591.4211956020      0.1870000000      14.5659148938      0.5641081667      0.0000000000
0.5565578232       124861.3442263309      0.1890000000      14.5433864304      0.5730819332      0.0000000000
0.5649911829       115923.8242093950      0.1910000000      14.5216586393      0.5820818411      0.0000000000
0.5734401689       107706.5682328620      0.1930000000      14.5006864106      0.5911080278      0.0000000000
0.5819048176       100144.5964972913      0.1950000000      14.4804276508      0.6001606129      0.0000000000
0.5903851468        93179.4836156953      0.1970000000      14.4608433828      0.6092396964      0.0000000000
0.5988811540        86758.5697315374      0.1990000000      14.4418970131      0.6183453580      0.0000000000
0.6073928156        80834.3971974717      0.2010000000      14.4235544606      0.6274776551      0.0000000000
0.6159200873        75364.0698991322      0.2030000000      14.4057837280      0.6366366244      0.0000000000
0.6244629028        70308.8289354320      0.2050000000      14.3885549362      0.6458222788      0.0000000000
0.6330211745        65633.5873691346      0.2070000000      14.3718401247      0.6550346093      0.0000000000
0.6415947913        61306.5455296111      0.2090000000      14.3556129802      0.6642735820      0.0000000000
0.6501836203        57298.8504903078      0.2110000000      14.3398488037      0.6735391398      0.0000000000
0.6587875052        53584.3055928034      0.2130000000      14.3245244151      0.6828312005      0.0000000000
0.6674062666        50139.0854481835      0.2150000000      14.3096179362      0.6921496570      0.0000000000
0.6760396911        46941.5195655954      0.2170000000      14.2951088511      0.7014943657      0.0000000000
0.6846875842        43971.8477765387      0.2190000000      14.2809776832      0.7108652030      0.0000000000
0.6933496652        41212.0715166960      0.2210000000      14.2672062312      0.7202619521      0.0000000000
0.7020256708        38645.7551191319      0.2230000000      14.2537771581      0.7296844140      0.0000000000
0.7107152952        36257.8805914463      0.2250000000      14.2406740883      0.7391323437      0.0000000000
0.7194182382        34034.7168977687      0.2270000000      14.2278816136      0.7486055012      0.0000000000
0.7281341472        31963.7016483567      0.2290000000      14.2153850942      0.7581035892      0.0000000000
0.7368626569        30033.3230431547      0.2310000000      14.2031706485      0.7676262952      0.0000000000
0.7456033787        28233.0338438450      0.2330000000      14.1912251164      0.7771732806      0.0000000000
0.7543559019        26553.1527871173      0.2350000000      14.1795360135      0.7867441813      0.0000000000
0.7631197938        24984.7936959050      0.2370000000      14.1680914809      0.7963386080      0.0000000000
0.7718945998        23519.7904259003      0.2390000000      14.1568802223      0.8059561460      0.0000000000
0.7806798437        22150.6333757983      0.2410000000      14.1458915056      0.8155963557      0.0000000000
0.7894750300        20870.4099842787      0.2430000000      14.1351151378      0.8252587741      0.0000000000
0.7982796409        19672.7581342552      0.2450000000      14.1245413815      0.8349429124      0.0000000000
0.8070931395        18551.8130521178      0.2470000000      14.1141609260      0.8446482587      0.0000000000
0.8159149698        17502.1653999864      0.2490000000      14.1039649484      0.8543742780      0.0000000000
0.8247445562        16518.8270185539      0.2510000000      14.0939449823      0.8641204116      0.0000000000
0.8335813058        15597.1861679315      0.2530000000      14.0840929281      0.8738860795      0.0000000000
0.8424246071        14732.9878614972      0.2550000000      14.0744010960      0.8836706785      0.0000000000
0.8512738326        13922.2940625265      0.2570000000      14.0648621285      0.8934735857      0.0000000000
0.8601283375        13161.4632284547      0.2590000000      14.0554688870      0.9032941556      0.0000000000
0.8689874615        12447.1244255763      0.2610000000      14.0462146167      0.9131317235      0.0000000000
0.8778505296        11776.1561795468      0.2630000000      14.0370928755      0.9229856051      0.0000000000
0.8867168521        11145.6648468270      0.2650000000      14.0280974369      0.9328550969      0.0000000000
0.8955857261        10552.9673690090      0.2670000000      14.0192223453      0.9427394776      0.0000000000
0.9044564357         9995.5743931288      0.2690000000      14.0104618633      0.9526380081      0.0000000000
0.9133282515         9471.1770739827      0.2710000000      14.0018105065      0.9625499313      0.0000000000
0.9222004346         8977.6289664213      0.2730000000      13.9932630369      0.9724744755      0.0000000000
0.9310722342         8512.9364949737      0.2750000000      13.9848143208      0.9824108528      0.0000000000
0.9399428900         8075.2472147997      0.2770000000      13.9764595786      0.9923582606      0.0000000000
0.9488116320         7662.8362876838      0.2790000000      13.9681940458      1.0023158821      0.0000000000
0.9576776825         7274.1004633054      0.2810000000      13.9600133085      1.0122828878      0.0000000000
0.9665402554         6907.5464535977      0.2830000000      13.9519129909      1.0222584350      0.0000000000
0.9753985579         6561.7831915354      0.2850000000      13.9438889437      1.0322416698      0.0000000000
0.9842517910         6235.5151924134      0.2870000000      13.9359371847      1.0422317269      0.0000000000
0.9930991504         5927.5334257421      0.2890000000      13.9280537962      1.0522277312      0.0000000000
1.0019398266         5636.7121282545      0.2910000000      13.9202351288      1.0622287974      0.0000000000
1.0107730069         5361.9991330505      0.2930000000      13.9124775652      1.0722340327      0.0000000000
1.0195978747         5102.4135612800      0.2950000000      13.9047776905      1.0822425352      0.0000000000
1.0284136113         4857.0388747080      0.2970000000      13.8971321930      1.0922533967      0.0000000000
1.0372193960         4625.0192531840      0.2990000000      13.8895378784      1.1022657020      0.0000000000
1.0460144070         4405.5541895720      0.3010000000      13.8819916185      1.1122785306      0.0000000000
1.0547978223         4197.8961773709      0.3030000000      13.8744905184      1.1222909571      0.0000000000
1.0635688202         4001.3451900797      0.3050000000      13.8670316962      1.1323020520      0.0000000000
1.0723265798         3815.2468959292      0.3070000000      13.8596123972      1.1423108822      0.0000000000
1.0810702820         3638.9885317954      0.3090000000      13.8522300009      1.1523165122      0.0000000000
1.0897991097         3471.9964989137      0.3110000000      13.8448819234      1.1623180041      0.0000000000
1.0985122490         3313.7334510085      0.3130000000      13.8375657256      1.1723144191      0.0000000000
1.1072088894         3163.6959524618      0.3150000000      13.8302790370      1.1823048177      0.0000000000
1.1158882246         3021.4118034528      0.3170000000      13.8230195767      1.1922882607      0.0000000000
1.1245494529         2886.4387909411      0.3190000000      13.8157851839      1.2022638095      0.0000000000
1.1331917778         2758.3615877635      0.3210000000      13.8085736759      1.2122305268      0.0000000000
1.1418144088         2636.7909015487      0.3230000000      13.8013830845      1.2221874777      0.0000000000
1.1504165619         2521.3610419755      0.3250000000      13.7942114467      1.2321337303      0.0000000000
1.1589974592         2411.7288625834      0.3270000000      13.7870568811      1.2420683549      0.0000000000
1.1675563309         2307.5718468593      0.3290000000      13.7799175710      1.2519904267      0.0000000000
1.1760924150         2208.5871475560      0.3310000000      13.7727917920      1.2618990254      0.0000000000
1.1846049573         2114.4901634280      0.3330000000      13.7656778809      1.2717932354      0.0000000000
1.1930932127         2025.0133164075      0.3350000000      13.7585742124      1.2816721466      0.0000000000
1.2015564452         1939.9046884274      0.3370000000      13.7514792729      1.2915348557      0.0000000000
1.2099939283         1858.9277112076      0.3390000000      13.7443915815      1.3013804653      0.0000000000
1.2184049454         1781.8595488414      0.3410000000      13.7373097281      1.3112080859      0.0000000000
1.2267887901         1708.4905702111      0.3430000000      13.7302323591      1.3210168348      0.0000000000
1.2351447670         1638.6231294232      0.3450000000      13.7231581423      1.3308058382      0.0000000000
1.2434721913         1572.0714042392      0.3470000000      13.7160858866      1.3405742305      0.0000000000
1.2517703896         1508.6601072144      0.3490000000      13.7090143781      1.3503211550      0.0000000000
1.2600386999         1448.2241776714      0.3510000000      13.7019424881      1.3600457643      0.0000000000
1.2682764722         1390.6080065071      0.3530000000      13.6948691226      1.3697472212      0.0000000000
1.2764830686         1335.6647237504      0.3550000000      13.6877932369      1.3794246981      0.0000000000
1.2846578633         1283.2559810598      0.3570000000      13.6807138423      1.3890773782      0.0000000000
1.2928002435         1233.2510741436      0.3590000000      13.6736300174      1.3987044557      0.0000000000
1.3009096085         1185.5268759055      0.3610000000      13.6665408575      1.4083051355      0.0000000000
1.3089853707         1139.9670164773      0.3630000000      13.6594455122      1.4178786341      0.0000000000
1.3170269558         1096.4615806272      0.3650000000      13.6523431446      1.4274241799      0.0000000000
1.3250338028         1054.9068069488      0.3670000000      13.6452330277      1.4369410133      0.0000000000
1.3330053634         1015.2047179740      0.3690000000      13.6381144142      1.4464283866      0.0000000000
1.3409411035          977.2626250159      0.3710000000      13.6309866139      1.4558855651      0.0000000000
1.3488405021          940.9929914910      0.3730000000      13.6238489596      1.4653118262      0.0000000000
1.3567030522          906.3129557614      0.3750000000      13.6167008628      1.4747064608      0.0000000000
1.3645282602          873.1442636914      0.3770000000      13.6095417444      1.4840687725      0.0000000000
1.3723156463          841.4128681300      0.3790000000      13.6023710518      1.4933980780      0.0000000000
1.3800647448          811.0485835857      0.3810000000      13.5951882563      1.5026937079      0.0000000000
1.3877751036          781.9851220254      0.3830000000      13.5879929177      1.5119550060      0.0000000000
1.3954462847          754.1596393246      0.3850000000      13.5807845563      1.5211813299      0.0000000000
1.4030778636          727.5126714036      0.3870000000      13.5735627827      1.5303720509      0.0000000000
1.4106694300          701.9878801450      0.3890000000      13.5663271991      1.5395265541      0.0000000000
1.4182205874          677.5318668891      0.3910000000      13.5590774536      1.5486442387      0.0000000000
1.4257309530          654.0940508346      0.3930000000      13.5518132186      1.5577245179      0.0000000000
1.4332001578          631.6264691554      0.3950000000      13.5445341919      1.5667668190      0.0000000000
1.4406278464          610.0836559852      0.3970000000      13.5372400876      1.5757705830      0.0000000000
1.4480136773          589.4224867991      0.3990000000      13.5299306852      1.5847352658      0.0000000000
1.4553573223          569.6020511978      0.4010000000      13.5226057034      1.5936603366      0.0000000000
1.4626584670          550.5835198848      0.4030000000      13.5152650022      1.6025452797      0.0000000000
1.4699168103          532.3300807003      0.4050000000      13.5079083814      1.6113895930      0.0000000000
1.4771320643          514.8067422150      0.4070000000      13.5005356814      1.6201927885      0.0000000000
1.4843039543          497.9802955631      0.4090000000      13.4931467593      1.6289543927      0.0000000000
1.4914322190          481.8191919973      0.4110000000      13.4857415102      1.6376739459      0.0000000000
1.4985166095          466.2934932755      0.4130000000      13.4783198327      1.6463510026      0.0000000000
1.5055568900          451.3747149800      0.4150000000      13.4708816664      1.6549851309      0.0000000000
1.5125528381          437.0358047692      0.4170000000      13.4634269499      1.6635759142      0.0000000000
1.5195042427          423.2510232392      0.4190000000      13.4559556270      1.6721229478      0.0000000000
1.5264109059          409.9959167336      0.4210000000      13.4484677018      1.6806258421      0.0000000000
1.5332726421          397.2472153379      0.4230000000      13.4409631660      1.6890842211      0.0000000000
1.5400892774          384.9827889004      0.4250000000      13.4334420042      1.6974977218      0.0000000000
1.5468606501          373.1815820285      0.4270000000      13.4259042697      1.7058659953      0.0000000000
1.5535866103          361.8235369804      0.4290000000      13.4183500040      1.7141887061      0.0000000000
1.5602670196          350.8895882831      0.4310000000      13.4107792497      1.7224655315      0.0000000000
1.5669017512          340.3615639601      0.4330000000      13.4031920888      1.7306961625      0.0000000000
1.5734906893          330.2221412444      0.4350000000      13.3955885893      1.7388803030      0.0000000000
1.5800337295          320.4548573344      0.4370000000      13.3879688515      1.7470176696      0.0000000000
1.5865307786          311.0440015068      0.4390000000      13.3803329962      1.7551079926      0.0000000000
1.5929817526          301.9745941667      0.4410000000      13.3726811129      1.7631510128      0.0000000000
1.5993865796          293.2323806362      0.4430000000      13.3650133537      1.7711464858      0.0000000000
1.6057451977          284.8037487589      0.4450000000      13.3573298675      1.7790941785      0.0000000000
1.6120575548          276.6757217210      0.4470000000      13.3496307624      1.7869938702      0.0000000000
