# M(M_sol)                 Lambda          n_Bc(fm^-3)         R(km)            m_B(M_sol)        m_Bquar/M_B
0.1502983786     38345629.1803227141      0.1130000000      22.5488701937      0.1504912648      0.0000000000
0.1539371616     33758442.9677469060      0.1150000000      21.9280282217      0.1541785349      0.0000000000
0.1576051044     29822608.5106937140      0.1170000000      21.3657979193      0.1578973537      0.0000000000
0.1613267422     26406866.3050488830      0.1190000000      20.8511323198      0.1616726604      0.0000000000
0.1651111128     23425369.9386023320      0.1210000000      20.3773789582      0.1655137160      0.0000000000
0.1689646112     20811829.5038580485      0.1230000000      19.9394127053      0.1694271186      0.0000000000
0.1728925996     18513067.4839393608      0.1250000000      19.5330803843      0.1734184332      0.0000000000
0.1768999293     16485524.5419194493      0.1270000000      19.1549340159      0.1774927198      0.0000000000
0.1809911637     14693019.2074654493      0.1290000000      18.8020693084      0.1816547597      0.0000000000
0.1851706809     13105180.8792067561      0.1310000000      18.4720125139      0.1859091594      0.0000000000
0.1894427318     11696287.0473839417      0.1330000000      18.1626392787      0.1902604097      0.0000000000
0.1938114728     10444391.8142963927      0.1350000000      17.8721118592      0.1947129191      0.0000000000
0.1982809772      9330654.0887008756      0.1370000000      17.5988298977      0.1992710260      0.0000000000
0.2028552447      8338812.0627088659      0.1390000000      17.3413928489      0.2039390085      0.0000000000
0.2075382049      7454757.0785079719      0.1410000000      17.0985681832      0.2087210882      0.0000000000
0.2123337153      6666201.4699823344      0.1430000000      16.8692655283      0.2136214287      0.0000000000
0.2172455573      5962401.2373845354      0.1450000000      16.6525168899      0.2186441315      0.0000000000
0.2222774342      5333928.9033449292      0.1470000000      16.4474582448      0.2237932346      0.0000000000
0.2274329638      4772488.8753052382      0.1490000000      16.2533153707      0.2290727054      0.0000000000
0.2327156799      4270761.5071207453      0.1510000000      16.0693914773      0.2344864422      0.0000000000
0.2381289987      3822275.6249933611      0.1530000000      15.8950578034      0.2400382398      0.0000000000
0.2436762506      3421295.0812089914      0.1550000000      15.7297433894      0.2457318232      0.0000000000
0.2493606512      3062727.8348705680      0.1570000000      15.5729286922      0.2515708170      0.0000000000
0.2551852950      2742046.4833883131      0.1590000000      15.4241389842      0.2575587400      0.0000000000
0.2611531523      2455221.4448250984      0.1610000000      15.2829390069      0.2636990012      0.0000000000
0.2672670618      2198660.0751888598      0.1630000000      15.1489278880      0.2699948935      0.0000000000
0.2735297245      1969157.8088578749      0.1650000000      15.0217358041      0.2764495859      0.0000000000
0.2799436957      1763852.8620734690      0.1670000000      14.9010194521      0.2830661164      0.0000000000
0.2865113760      1580189.3086908811      0.1690000000      14.7864603613      0.2898473822      0.0000000000
0.2932350203      1415881.9610393669      0.1710000000      14.6777610097      0.2967961486      0.0000000000
0.3001167112      1268887.5562582312      0.1730000000      14.5746434510      0.3039150216      0.0000000000
0.3071583682      1137378.4519956247      0.1750000000      14.4768469267      0.3112064571      0.0000000000
0.3143617376      1019719.5221014960      0.1770000000      14.3841260558      0.3186727499      0.0000000000
0.3217283908       914447.6459177168      0.1790000000      14.2962497142      0.3263160313      0.0000000000
0.3292597189       820253.7799072970      0.1810000000      14.2129994674      0.3341382637      0.0000000000
0.3369569297       735966.5070296302      0.1830000000      14.1341683156      0.3421412363      0.0000000000
0.3448210444       660537.7594781044      0.1850000000      14.0595600699      0.3503265609      0.0000000000
0.3528528965       593029.7181709065      0.1870000000      13.9889881399      0.3586956711      0.0000000000
0.3610531277       532603.4846854572      0.1890000000      13.9222747537      0.3672498155      0.0000000000
0.3694221880       478508.7118773121      0.1910000000      13.8592505900      0.3759900587      0.0000000000
0.3779603334       430074.2172013486      0.1930000000      13.7997536600      0.3849172768      0.0000000000
0.3866676257       386700.0232079654      0.1950000000      13.7436293671      0.3940321567      0.0000000000
0.3955439334       347849.5678375306      0.1970000000      13.6907296429      0.4033351960      0.0000000000
0.4045889306       313043.2701273590      0.1990000000      13.6409126663      0.4128267002      0.0000000000
0.4138020968       281852.4595174820      0.2010000000      13.5940422585      0.4225067824      0.0000000000
0.4231827214       253894.1049463281      0.2030000000      13.5499880296      0.4323753655      0.0000000000
0.4327299021       228825.9253840182      0.2050000000      13.5086246699      0.4424321802      0.0000000000
0.4424425477       206342.1269720148      0.2070000000      13.4698316889      0.4526767661      0.0000000000
0.4523193821       186169.5365337904      0.2090000000      13.4334934709      0.4631084748      0.0000000000
0.4623589454       168064.1331086843      0.2110000000      13.3994987432      0.4737264696      0.0000000000
0.4725595978       151807.9589765933      0.2130000000      13.3677405744      0.4845297279      0.0000000000
0.4829195221       137206.3488649219      0.2150000000      13.3381159501      0.4955170428      0.0000000000
0.4934367302       124085.4226907819      0.2170000000      13.3105259757      0.5066870281      0.0000000000
0.5041090642       112289.8923912558      0.2190000000      13.2848753216      0.5180381181      0.0000000000
0.5149342033       101681.0434864135      0.2210000000      13.2610723451      0.5295685732      0.0000000000
0.5259096676        92134.9760169026      0.2230000000      13.2390288391      0.5412764826      0.0000000000
0.5370328236        83541.0102050367      0.2250000000      13.2186599250      0.5531597685      0.0000000000
0.5483008893        75800.2623506296      0.2270000000      13.1998839242      0.5652161897      0.0000000000
0.5597109402        68824.3672737344      0.2290000000      13.1826222192      0.5774433469      0.0000000000
0.5712599152        62534.3736976987      0.2310000000      13.1667992687      0.5898386868      0.0000000000
0.5829446221        56859.7063506340      0.2330000000      13.1523423705      0.6023995072      0.0000000000
0.5947617442        51737.2667074390      0.2350000000      13.1391815841      0.6151229619      0.0000000000
0.6067078473        47110.6388904070      0.2370000000      13.1272497004      0.6280060666      0.0000000000
0.6187793848        42929.3511139232      0.2390000000      13.1164820137      0.6410457035      0.0000000000
0.6309727057        39148.2637067276      0.2410000000      13.1068165035      0.6542386281      0.0000000000
0.6432840603        35726.9683372611      0.2430000000      13.0981934057      0.6675814737      0.0000000000
0.6557096078        32629.2997342729      0.2450000000      13.0905554308      0.6810707584      0.0000000000
0.6682454226        29822.8658859758      0.2470000000      13.0838474729      0.6947028908      0.0000000000
0.6808875016        27278.6522322043      0.2490000000      13.0780167053      0.7084741761      0.0000000000
0.6936317708        24970.6565367352      0.2510000000      13.0730123806      0.7223808222      0.0000000000
0.7064740919        22875.5724955057      0.2530000000      13.0687857950      0.7364189457      0.0000000000
0.7194102699        20972.4911164446      0.2550000000      13.0652902562      0.7505845792      0.0000000000
0.7324360594        19242.6577420126      0.2570000000      13.0624810054      0.7648736765      0.0000000000
0.7455471714        17669.2365442165      0.2590000000      13.0603151210      0.7792821198      0.0000000000
0.7587392798        16237.1093711532      0.2610000000      13.0587514600      0.7938057248      0.0000000000
0.7720080288        14932.6925394106      0.2630000000      13.0577506554      0.8084402488      0.0000000000
0.7853490384        13743.7775528963      0.2650000000      13.0572749875      0.8231813954      0.0000000000
0.7987579115        12659.3857981950      0.2670000000      13.0572883489      0.8380248216      0.0000000000
0.8122302384        11669.6386280335      0.2690000000      13.0577562238      0.8529661423      0.0000000000
0.8257616054        10765.6446254037      0.2710000000      13.0586455716      0.8680009388      0.0000000000
0.8393476002         9939.3942368186      0.2730000000      13.0599248637      0.8831247640      0.0000000000
0.8529838154         9183.6714837069      0.2750000000      13.0615639028      0.8983331465      0.0000000000
0.8666658571         8491.9691540046      0.2770000000      13.0635339338      0.9136215990      0.0000000000
0.8803893480         7858.4176169208      0.2790000000      13.0658073871      0.9289856218      0.0000000000
0.8941499339         7277.7194686825      0.2810000000      13.0683581144      0.9444207092      0.0000000000
0.9079432881         6745.0896015966      0.2830000000      13.0711610265      0.9599223551      0.0000000000
0.9217651167         6256.2052167088      0.2850000000      13.0741923289      0.9754860575      0.0000000000
0.9356111624         5807.1574923453      0.2870000000      13.0774292892      0.9911073240      0.0000000000
0.9494772100         5394.4102926876      0.2890000000      13.0808502838      1.0067816766      0.0000000000
0.9633590898         5014.7626455506      0.2910000000      13.0844347518      1.0225046569      0.0000000000
0.9772526814         4665.3158630812      0.2930000000      13.0881630847      1.0382718293      0.0000000000
0.9911539184         4343.4429181958      0.2950000000      13.0920167333      1.0540787869      0.0000000000
1.0050587909         4046.7613991344      0.2970000000      13.0959779910      1.0699211548      0.0000000000
1.0189633494         3773.1097709439      0.2990000000      13.1000300944      1.0857945944      0.0000000000
1.0328637078         3520.5262645231      0.3010000000      13.1041571693      1.1016948071      0.0000000000
1.0467560459         3287.2280433561      0.3030000000      13.1083441239      1.1176175382      0.0000000000
1.0606366129         3071.5951355299      0.3050000000      13.1125766964      1.1335585800      0.0000000000
1.0745017292         2872.1536202768      0.3070000000      13.1168413597      1.1495137758      0.0000000000
1.0883477884         2687.5627407095      0.3090000000      13.1211253556      1.1654790215      0.0000000000
1.1021712647         2516.6012790653      0.3110000000      13.1254166075      1.1814502755      0.0000000000
1.1159686933         2358.1564123822      0.3130000000      13.1297037408      1.1974235361      0.0000000000
1.1297367110         2211.2138153042      0.3150000000      13.1339760079      1.2133948894      0.0000000000
1.1434720216         2074.8479726985      0.3170000000      13.1382233042      1.2293604698      0.0000000000
1.1571714140         1948.2141572552      0.3190000000      13.1424361159      1.2453164815      0.0000000000
1.1708317597         1830.5406343881      0.3210000000      13.1466054562      1.2612591969      0.0000000000
1.1844500149         1721.1223572630      0.3230000000      13.1507229873      1.2771849589      0.0000000000
1.1980232197         1619.3142338807      0.3250000000      13.1547808057      1.2930901819      0.0000000000
1.2115485002         1524.5263321072      0.3270000000      13.1587715746      1.3089713538      0.0000000000
1.2250230677         1436.2182309326      0.3290000000      13.1626883729      1.3248250368      0.0000000000
1.2384442199         1353.8949272556      0.3310000000      13.1665247815      1.3406478695      0.0000000000
1.2518093404         1277.1027087958      0.3330000000      13.1702748482      1.3564365670      0.0000000000
1.2651158991         1205.4252578613      0.3350000000      13.1739329684      1.3721879223      0.0000000000
1.2783614522         1138.4806281887      0.3370000000      13.1774940213      1.3878988071      0.0000000000
1.2915436412         1075.9179560433      0.3390000000      13.1809531762      1.4035661719      0.0000000000
1.3046601936         1017.4149456756      0.3410000000      13.1843060652      1.4191870473      0.0000000000
1.3177089216          962.6751263600      0.3430000000      13.1875486023      1.4347585437      0.0000000000
1.3306877219          911.4258668953      0.3450000000      13.1906770517      1.4502778517      0.0000000000
1.3435945749          863.4161682910      0.3470000000      13.1936880252      1.4657422425      0.0000000000
1.3564275441          818.4148200367      0.3490000000      13.1965783907      1.4811490675      0.0000000000
1.3691847748          776.2087792393      0.3510000000      13.1993453339      1.4964957586      0.0000000000
1.3818644939          736.6016230177      0.3530000000      13.2019863112      1.5117798274      0.0000000000
1.3944650082          699.4120126139      0.3550000000      13.2044990178      1.5269988659      0.0000000000
1.4069847036          664.4727011416      0.3570000000      13.2068814263      1.5421505451      0.0000000000
1.4194220440          631.6290567435      0.3590000000      13.2091317369      1.5572326151      0.0000000000
1.4317755701          600.7382799427      0.3610000000      13.2112483511      1.5722429044      0.0000000000
1.4440438981          571.6682203286      0.3630000000      13.2132299170      1.5871793195      0.0000000000
1.4562257181          544.2967055069      0.3650000000      13.2150752564      1.6020398435      0.0000000000
1.4683197936          518.5105468763      0.3670000000      13.2167834010      1.6168225366      0.0000000000
1.4803249590          494.2049749065      0.3690000000      13.2183535469      1.6315255337      0.0000000000
1.4922401191          471.2828407321      0.3710000000      13.2197850821      1.6461470449      0.0000000000
1.5040642470          449.6540884524      0.3730000000      13.2210775052      1.6606853535      0.0000000000
1.5157963836          429.2351283710      0.3750000000      13.2222305604      1.6751388164      0.0000000000
1.5274356345          409.9484480541      0.3770000000      13.2232440468      1.6895058610      0.0000000000
1.5389811701          391.7219608482      0.3790000000      13.2241179369      1.7037849862      0.0000000000
1.5504322231          374.4887710280      0.3810000000      13.2248523397      1.7179747599      0.0000000000
1.5617880876          358.1865877409      0.3830000000      13.2254474609      1.7320738189      0.0000000000
1.5730481167          342.7575532844      0.3850000000      13.2259036487      1.7460808665      0.0000000000
1.5842117252          328.1477723574      0.3870000000      13.2262213373      1.7599946766      0.0000000000
1.5952783744          314.3070777281      0.3890000000      13.2264010537      1.7738140753      0.0000000000
1.6062475901          301.1887277098      0.3910000000      13.2264434491      1.7875379645      0.0000000000
1.6171189483          288.7491524320      0.3930000000      13.2263492402      1.8011653044      0.0000000000
1.6278920768          276.9477167060      0.3950000000      13.2261192255      1.8146951158      0.0000000000
1.6385666538          265.7465099722      0.3970000000      13.2257542913      1.8281264798      0.0000000000
1.6491424058          255.1101470671      0.3990000000      13.2252553960      1.8414585353      0.0000000000
1.6596191070          245.0055675460      0.4010000000      13.2246235437      1.8546904785      0.0000000000
1.6699965772          235.4018943415      0.4030000000      13.2238598367      1.8678215614      0.0000000000
1.6802746804          226.2702554085      0.4050000000      13.2229654019      1.8808510904      0.0000000000
1.6904533233          217.5836472029      0.4070000000      13.2219414343      1.8937784249      0.0000000000
1.7005324540          209.3168055485      0.4090000000      13.2207891821      1.9066029761      0.0000000000
1.7105120608          201.4460690016      0.4110000000      13.2195099124      1.9193242059      0.0000000000
1.7203921701          193.9492864793      0.4130000000      13.2181049788      1.9319416253      0.0000000000
1.7301728458          186.8056930812      0.4150000000      13.2165757368      1.9444547932      0.0000000000
1.7398541873          179.9958409103      0.4170000000      13.2149235838      1.9568633147      0.0000000000
1.7494363285          173.5014631354      0.4190000000      13.2131499596      1.9691668409      0.0000000000
1.7589194365          167.3054390115      0.4210000000      13.2112563255      1.9813650664      0.0000000000
1.7683037102          161.3916927835      0.4230000000      13.2092441537      1.9934577287      0.0000000000
1.7775893791          155.7451220106      0.4250000000      13.2071149754      2.0054446070      0.0000000000
1.7867767020          150.3515471078      0.4270000000      13.2048703001      2.0173255205      0.0000000000
1.7958659658          145.1976317321      0.4290000000      13.2025116881      2.0291003276      0.0000000000
1.8048574845          140.2708357432      0.4310000000      13.2000406974      2.0407689246      0.0000000000
1.8137515977          135.5593651356      0.4330000000      13.1974589129      2.0523312445      0.0000000000
1.8225486695          131.0521229842      0.4350000000      13.1947678985      2.0637872555      0.0000000000
1.8312490881          126.7386524022      0.4370000000      13.1919692753      2.0751369605      0.0000000000
1.8398532636          122.6091123844      0.4390000000      13.1890646304      2.0863803953      0.0000000000
1.8483616279          118.6542234896      0.4410000000      13.1860555846      2.0975176282      0.0000000000
1.8567746330          114.8652419303      0.4430000000      13.1829437428      2.1085487580      0.0000000000
1.8650927505          111.2339201369      0.4450000000      13.1797307214      2.1194739136      0.0000000000
1.8733164705          107.7524761816      0.4470000000      13.1764181492      2.1302932530      0.0000000000
1.8814463002          104.4135666340      0.4490000000      13.1730076174      2.1410069616      0.0000000000
1.8894827638          101.2102608391      0.4510000000      13.1695007576      2.1516152518      0.0000000000
1.8974264011           98.1360063198      0.4530000000      13.1658991743      2.1621183619      0.0000000000
1.9052777665           95.1846142689      0.4550000000      13.1622044810      2.1725165550      0.0000000000
1.9130374284           92.3502362721      0.4570000000      13.1584182679      2.1828101175      0.0000000000
1.9207059687           89.6273411327      0.4590000000      13.1545421368      2.1929993597      0.0000000000
1.9282839813           87.0106948054      0.4610000000      13.1505776758      2.2030846131      0.0000000000
1.9357720718           84.4953429936      0.4630000000      13.1465264597      2.2130662308      0.0000000000
1.9431708568           82.0766036849      0.4650000000      13.1423900674      2.2229445857      0.0000000000
1.9504809630           79.7500264956      0.4670000000      13.1381700480      2.2327200707      0.0000000000
1.9577030264           77.5114173177      0.4690000000      13.1338679616      2.2423930966      0.0000000000
1.9648376919           75.3567834967      0.4710000000      13.1294853446      2.2519640925      0.0000000000
