# M(M_sol)                 Lambda          n_Bc(fm^-3)         R(km)            m_B(M_sol)        m_Bquar/M_B
0.1543771659     41258300.1390676126      0.0960000000      23.0714573871      0.1546430140      0.0000000000
0.1597272927     34950170.6353864744      0.0980000000      22.2695192599      0.1600692759      0.0000000000
0.1651542837     29764968.6134446152      0.1000000000      21.5661508144      0.1655776108      0.0000000000
0.1706555425     25469037.9766066410      0.1020000000      20.9449290083      0.1711655311      0.0000000000
0.1762289396     21885731.2404866181      0.1040000000      20.3928277783      0.1768310199      0.0000000000
0.1818727549     18879120.8183865473      0.1060000000      19.8993937270      0.1825724740      0.0000000000
0.1875856289     16343098.3131740093      0.1080000000      19.4561431914      0.1883886554      0.0000000000
0.1933665163     14193843.1771847997      0.1100000000      19.0561253717      0.1942786452      0.0000000000
0.1992146541     12364488.5255918782      0.1120000000      18.6935942854      0.2002418120      0.0000000000
0.2050788740     10813539.4891735148      0.1140000000      18.3664404014      0.2062260675      0.0000000000
0.2108938676      9505249.4437652696      0.1160000000      18.0729658242      0.2121647162      0.0000000000
0.2167114767      8385235.0714692073      0.1180000000      17.8060390524      0.2181106382      0.0000000000
0.2225464640      7419614.9872780992      0.1200000000      17.5616777897      0.2240789383      0.0000000000
0.2284069099      6582722.7617636137      0.1220000000      17.3368953101      0.2300779263      0.0000000000
0.2342984816      5854217.7799867811      0.1240000000      17.1292937135      0.2361134654      0.0000000000
0.2402256861      5217647.2584244581      0.1260000000      16.9368920463      0.2421902480      0.0000000000
0.2461923785      4659521.3381379284      0.1280000000      16.7580253242      0.2483123132      0.0000000000
0.2522020074      4168675.1094252518      0.1300000000      16.5912780799      0.2544832958      0.0000000000
0.2582577530      3735793.9773779162      0.1320000000      16.4354359727      0.2607065675      0.0000000000
0.2643626034      3353058.9058169704      0.1340000000      16.2894502234      0.2669853142      0.0000000000
0.2705194023      3013864.8926032651      0.1360000000      16.1524086085      0.2733225841      0.0000000000
0.2767308770      2712605.7244087164      0.1380000000      16.0235138487      0.2797213167      0.0000000000
0.2829996602      2444500.9878223143      0.1400000000      15.9020659900      0.2861843650      0.0000000000
0.2893282979      2205456.6284704260      0.1420000000      15.7874472686      0.2927145029      0.0000000000
0.2957192609      1991951.8200104248      0.1440000000      15.6791103272      0.2993144372      0.0000000000
0.3021749474      1800949.9213965998      0.1460000000      15.5765691245      0.3059868105      0.0000000000
0.3086976859      1629821.0629356408      0.1480000000      15.4793894321      0.3127342038      0.0000000000
0.3152897368      1476281.3619196841      0.1500000000      15.3871830994      0.3195591378      0.0000000000
0.3219532909      1338341.2970919658      0.1520000000      15.2996013902      0.3264640719      0.0000000000
0.3286904699      1214262.7884627280      0.1540000000      15.2163300434      0.3334514043      0.0000000000
0.3355033343      1102523.7205975854      0.1560000000      15.1370857031      0.3405234797      0.0000000000
0.3423938481      1001788.0129795367      0.1580000000      15.0616117241      0.3476825536      0.0000000000
0.3493639242       910879.1644655418      0.1600000000      14.9896747016      0.3549308382      0.0000000000
0.3564153908       828760.1245755703      0.1620000000      14.9210625680      0.3622704685      0.0000000000
0.3635499989       754514.0861259135      0.1640000000      14.8555816527      0.3697035087      0.0000000000
0.3707694184       687329.1691058472      0.1660000000      14.7930548252      0.3772319492      0.0000000000
0.3780752361       626485.0928422891      0.1680000000      14.7333196936      0.3848577037      0.0000000000
0.3854689528       571341.6210489677      0.1700000000      14.6762268304      0.3925826059      0.0000000000
0.3929519821       521328.8701466790      0.1720000000      14.6216388236      0.4004084086      0.0000000000
0.4005256467       475938.6973532623      0.1740000000      14.5694286611      0.4083367789      0.0000000000
0.4081911773       434717.1887473516      0.1760000000      14.5194786391      0.4163692975      0.0000000000
0.4159497054       397258.6947492436      0.1780000000      14.4716800237      0.4245074504      0.0000000000
0.4238022811       363199.6760176052      0.1800000000      14.4259311010      0.4327526473      0.0000000000
0.4317498418       332214.4350442605      0.1820000000      14.3821376648      0.4411061889      0.0000000000
0.4397932282       304010.5373783549      0.1840000000      14.3402114347      0.4495692825      0.0000000000
0.4479331800       278325.1585033386      0.1860000000      14.3000698018      0.4581430380      0.0000000000
0.4561703344       254921.9296181426      0.1880000000      14.2616354543      0.4668284653      0.0000000000
0.4645052228       233587.9706043287      0.1900000000      14.2248355641      0.4756264707      0.0000000000
0.4729382728       214131.4230612790      0.1920000000      14.1896016255      0.4845378585      0.0000000000
0.4814698046       196379.1933287019      0.1940000000      14.1558689811      0.4935633267      0.0000000000
0.4901000313       180175.0327400075      0.1960000000      14.1235764936      0.5027034665      0.0000000000
0.4988290581       165377.7137519624      0.1980000000      14.0926661595      0.5119587615      0.0000000000
0.5076568823       151859.5854728507      0.2000000000      14.0630830822      0.5213295869      0.0000000000
0.5165833947       139505.0941355386      0.2020000000      14.0347748755      0.5308162101      0.0000000000
0.5256083736       128209.6324548579      0.2040000000      14.0076917629      0.5404187842      0.0000000000
0.5347314928       117878.4081823303      0.2060000000      13.9817861146      0.5501373557      0.0000000000
0.5439523187       108425.5064916794      0.2080000000      13.9570126325      0.5599718603      0.0000000000
0.5532703092        99772.9838648525      0.2100000000      13.9333277118      0.5699221219      0.0000000000
0.5626848175        91850.0990109987      0.2120000000      13.9106897477      0.5799878555      0.0000000000
0.5721950901        84592.6213726275      0.2140000000      13.8890585611      0.5901686642      0.0000000000
0.5818002717        77942.1990231674      0.2160000000      13.8683957114      0.6004640441      0.0000000000
0.5914994038        71845.8084356903      0.2180000000      13.8486642106      0.6108733816      0.0000000000
0.6012914276        66255.2273075121      0.2200000000      13.8298283759      0.6213959563      0.0000000000
0.6111751848        61126.5992728663      0.2220000000      13.8118537915      0.6320309409      0.0000000000
0.6211494207        56420.0072430168      0.2240000000      13.7947071982      0.6427774034      0.0000000000
0.6312127854        52099.1201393076      0.2260000000      13.7783564825      0.6536343082      0.0000000000
0.6413638368        48130.8554956844      0.2280000000      13.7627706679      0.6646005178      0.0000000000
0.6516010422        44485.0718216135      0.2300000000      13.7479196941      0.6756747948      0.0000000000
0.6619227829        41134.3002670307      0.2320000000      13.7337745530      0.6868558049      0.0000000000
0.6723273531        38053.5030327284      0.2340000000      13.7203069473      0.6981421158      0.0000000000
0.6828129670        35219.8459471622      0.2360000000      13.7074896424      0.7095322038      0.0000000000
0.6933777596        32612.5036022569      0.2380000000      13.6952962145      0.7210244535      0.0000000000
0.7040197890        30212.4716319406      0.2400000000      13.6837009356      0.7326171604      0.0000000000
0.7147370414        28002.4040889321      0.2420000000      13.6726788992      0.7443085347      0.0000000000
0.7255274341        25966.4637450367      0.2440000000      13.6622059638      0.7560967043      0.0000000000
0.7363888171        24090.1873245173      0.2460000000      13.6522586238      0.7679797154      0.0000000000
0.7473189796        22360.3597410011      0.2480000000      13.6428141829      0.7799555395      0.0000000000
0.7583156498        20764.9082269910      0.2500000000      13.6338504932      0.7920220718      0.0000000000
0.7693765018        19292.7928859331      0.2520000000      13.6253460942      0.8041771384      0.0000000000
0.7804991567        17933.9222536032      0.2540000000      13.6172801281      0.8164184966      0.0000000000
0.7916811874        16679.0664434547      0.2560000000      13.6096324157      0.8287438399      0.0000000000
0.8029201231        15519.7789096238      0.2580000000      13.6023833652      0.8411508020      0.0000000000
0.8142134511        14448.3308153272      0.2600000000      13.5955139260      0.8536369580      0.0000000000
0.8255586211        13457.6472836207      0.2620000000      13.5890055948      0.8661998289      0.0000000000
0.8369530495        12541.2491701609      0.2640000000      13.5828404762      0.8788368856      0.0000000000
0.8483941225        11693.2014926536      0.2660000000      13.5770011968      0.8915455521      0.0000000000
0.8598791998        10908.0669389277      0.2680000000      13.5714709198      0.9043232082      0.0000000000
0.8714056178        10180.8614579037      0.2700000000      13.5662332708      0.9171671940      0.0000000000
0.8829706948         9507.0152399060      0.2720000000      13.5612725011      0.9300748136      0.0000000000
0.8945717317         8882.3383081134      0.2740000000      13.5565732637      0.9430433369      0.0000000000
0.9062060182         8302.9854156515      0.2760000000      13.5521206783      0.9560700049      0.0000000000
0.9178708341         7765.4292553682      0.2780000000      13.5479004363      0.9691520319      0.0000000000
0.9295634545         7266.4310515773      0.2800000000      13.5438986629      0.9822866100      0.0000000000
0.9412811515         6803.0160503832      0.2820000000      13.5401018550      0.9954709115      0.0000000000
0.9530211984         6372.4532465817      0.2840000000      13.5364971073      1.0087020928      0.0000000000
0.9647808722         5972.2321420113      0.2860000000      13.5330718287      1.0219772972      0.0000000000
0.9765574569         5600.0451653809      0.2880000000      13.5298138894      1.0352936582      0.0000000000
0.9883482464         5253.7708949352      0.2900000000      13.5267116283      1.0486483034      0.0000000000
1.0001505475         4931.4578470499      0.2920000000      13.5237537465      1.0620383563      0.0000000000
1.0119616826         4631.3102646921      0.2940000000      13.5209293840      1.0754609408      0.0000000000
1.0237789916         4351.6753490788      0.2960000000      13.5182280138      1.0889131823      0.0000000000
1.0355998359         4091.0313374693      0.2980000000      13.5156395701      1.1023922123      0.0000000000
1.0474215994         3847.9766714790      0.3000000000      13.5131543153      1.1158951698      0.0000000000
1.0592416922         3621.2194491155      0.3020000000      13.5107628860      1.1294192057      0.0000000000
1.0710575515         3409.5693385979      0.3040000000      13.5084563053      1.1429614831      0.0000000000
1.0828666443         3211.9285711205      0.3060000000      13.5062259111      1.1565191816      0.0000000000
1.0946664709         3027.2843882521      0.3080000000      13.5040634124      1.1700895004      0.0000000000
1.1064545625         2854.7026873029      0.3100000000      13.5019608373      1.1836696559      0.0000000000
1.1182284882         2693.3208217217      0.3120000000      13.4999105539      1.1972568905      0.0000000000
1.1299858538         2542.3423278508      0.3140000000      13.4979052160      1.2108484706      0.0000000000
1.1417243040         2401.0313531993      0.3160000000      13.4959378357      1.2244416900      0.0000000000
1.1534415236         2268.7079925109      0.3180000000      13.4940016861      1.2380338710      0.0000000000
1.1651352388         2144.7436616978      0.3200000000      13.4920903439      1.2516223668      0.0000000000
1.1768032198         2028.5568979822      0.3220000000      13.4901976929      1.2652045640      0.0000000000
1.1884432796         1919.6099917429      0.3240000000      13.4883178461      1.2787778819      0.0000000000
1.2000532775         1817.4049994142      0.3260000000      13.4864452638      1.2923397772      0.0000000000
1.2116311181         1721.4809816251      0.3280000000      13.4845745604      1.3058877427      0.0000000000
1.2231747535         1631.4110547540      0.3300000000      13.4827007197      1.3194193104      0.0000000000
1.2346821835         1546.7996135550      0.3320000000      13.4808188944      1.3329320519      0.0000000000
1.2461514560         1467.2798830305      0.3340000000      13.4789245122      1.3464235800      0.0000000000
1.2575806684         1392.5118372135      0.3360000000      13.4770132025      1.3598915494      0.0000000000
1.2689679672         1322.1799956091      0.3380000000      13.4750808528      1.3733336582      0.0000000000
1.2803115492         1255.9915280571      0.3400000000      13.4731235590      1.3867476484      0.0000000000
1.2916096611         1193.6746532980      0.3420000000      13.4711376011      1.4001313068      0.0000000000
1.3028606004         1134.9768434559      0.3440000000      13.4691195247      1.4134824662      0.0000000000
1.3140627151         1079.6635384860      0.3460000000      13.4670659893      1.4267990049      0.0000000000
1.3252144041         1027.5166796718      0.3480000000      13.4649739178      1.4400788487      0.0000000000
1.3363141168          978.3335186612      0.3500000000      13.4628403660      1.4533199703      0.0000000000
1.3473603540          931.9253951404      0.3520000000      13.4606626218      1.4665203908      0.0000000000
1.3583516665          888.1167847897      0.3540000000      13.4584380948      1.4796781787      0.0000000000
1.3692866558          846.7442970869      0.3560000000      13.4561643617      1.4927914511      0.0000000000
1.3801639739          807.6556714216      0.3580000000      13.4538392104      1.5058583742      0.0000000000
1.3909823225          770.7091503244      0.3600000000      13.4514605210      1.5188771622      0.0000000000
1.4017404530          735.7725404289      0.3620000000      13.4490263582      1.5318460789      0.0000000000
1.4124371664          702.7225732023      0.3640000000      13.4465349235      1.5447634365      0.0000000000
1.4230713121          671.4443153396      0.3660000000      13.4439845320      1.5576275964      0.0000000000
1.4336417882          641.8304270775      0.3680000000      13.4413736861      1.5704369687      0.0000000000
1.4441475404          613.7808128121      0.3700000000      13.4387009386      1.5831900119      0.0000000000
1.4545875620          587.2018787257      0.3720000000      13.4359650319      1.5958852336      0.0000000000
1.4649608928          562.0062893397      0.3740000000      13.4331647913      1.6085211889      0.0000000000
1.4752666187          538.1123244993      0.3760000000      13.4302991417      1.6210964813      0.0000000000
1.4855038711          515.4436549216      0.3780000000      13.4273671554      1.6336097619      0.0000000000
1.4956718264          493.9288225840      0.3800000000      13.4243679789      1.6460597294      0.0000000000
1.5057697047          473.5009998822      0.3820000000      13.4213008635      1.6584451287      0.0000000000
1.5157967696          454.0976074774      0.3840000000      13.4181651528      1.6707647518      0.0000000000
1.5257523274          435.6600818743      0.3860000000      13.4149602835      1.6830174364      0.0000000000
1.5356357260          418.1335373176      0.3880000000      13.4116857851      1.6952020658      0.0000000000
1.5454463544          401.4665258865      0.3900000000      13.4083412370      1.7073175683      0.0000000000
1.5551836420          385.6108213333      0.3920000000      13.4049263646      1.7193629167      0.0000000000
1.5648470574          370.5212230530      0.3940000000      13.4014408937      1.7313371274      0.0000000000
1.5744361080          356.1553006121      0.3960000000      13.3978846601      1.7432392602      0.0000000000
1.5839503388          342.4732172752      0.3980000000      13.3942575662      1.7550684179      0.0000000000
1.5933893319          329.4375951940      0.4000000000      13.3905595656      1.7668237447      0.0000000000
1.6027527053          317.0133285908      0.4020000000      13.3867906783      1.7785044264      0.0000000000
1.6120401124          305.1673985817      0.4040000000      13.3829510072      1.7901096898      0.0000000000
1.6212512409          293.8688120043      0.4060000000      13.3790406668      1.8016388011      0.0000000000
1.6303858120          283.0883996769      0.4080000000      13.3750598485      1.8130910661      0.0000000000
1.6394435797          272.7987343970      0.4100000000      13.3710088004      1.8244658292      0.0000000000
1.6484243297          262.9740046212      0.4120000000      13.3668878101      1.8357624726      0.0000000000
1.6573278787          253.5899169417      0.4140000000      13.3626971846      1.8469804155      0.0000000000
1.6661540736          244.6235896915      0.4160000000      13.3584373263      1.8581191137      0.0000000000
1.6749027905          236.0534766743      0.4180000000      13.3541086323      1.8691780586      0.0000000000
1.6835739339          227.8592756865      0.4200000000      13.3497115482      1.8801567764      0.0000000000
1.6921674360          220.0218361208      0.4220000000      13.3452465737      1.8910548275      0.0000000000
1.7006832558          212.5231128166      0.4240000000      13.3407142080      1.9018718058      0.0000000000
1.7091213783          205.3460733748      0.4260000000      13.3361150202      1.9126073379      0.0000000000
1.7174818134          198.4746634633      0.4280000000      13.3314495676      1.9232610820      0.0000000000
1.7257645957          191.8937079224      0.4300000000      13.3267184605      1.9338327276      0.0000000000
1.7339697833          185.5888894451      0.4320000000      13.3219223290      1.9443219949      0.0000000000
1.7420974570          179.5466769610      0.4340000000      13.3170618383      1.9547286336      0.0000000000
1.7501477195          173.7542953720      0.4360000000      13.3121376456      1.9650524220      0.0000000000
1.7581206951          168.1996564965      0.4380000000      13.3071504512      1.9752931670      0.0000000000
1.7660165284          162.8713417989      0.4400000000      13.3021009734      1.9854507028      0.0000000000
1.7738353839          157.7585382654      0.4420000000      13.2969899375      1.9955248904      0.0000000000
1.7815774452          152.8510296284      0.4440000000      13.2918180988      2.0055156166      0.0000000000
1.7892429140          148.1391403456      0.4460000000      13.2865862188      2.0154227938      0.0000000000
1.7968320101          143.6137009372      0.4480000000      13.2812950523      2.0252463587      0.0000000000
1.8043449699          139.2660405420      0.4500000000      13.2759454079      2.0349862721      0.0000000000
1.8117820463          135.0879390510      0.4520000000      13.2705380830      2.0446425179      0.0000000000
1.8191435080          131.0716006741      0.4540000000      13.2650738649      2.0542151025      0.0000000000
