# M(M_sol)                 Lambda          n_Bc(fm^-3)         R(km)            m_B(M_sol)        m_Bquar/M_B
0.1519999390     21997814.6237652078      0.1520000000      19.4939623770      0.1522245228      0.0000000000
0.1565111786     18737394.8732490540      0.1540000000      18.8827870759      0.1568006881      0.0000000000
0.1613130340     15932308.1805467978      0.1560000000      18.3170155647      0.1616753504      0.0000000000
0.1664132731     13526547.3641486168      0.1580000000      17.7942340211      0.1668570729      0.0000000000
0.1718189743     11469321.3695949297      0.1600000000      17.3119909878      0.1723537792      0.0000000000
0.1775365291      9714852.5772540104      0.1620000000      16.8678335326      0.1781727566      0.0000000000
0.1835716513      8222193.0951747606      0.1640000000      16.4593409191      0.1843206640      0.0000000000
0.1899293793      6954963.3773603737      0.1660000000      16.0841503442      0.1908035338      0.0000000000
0.1966141276      5881072.9412200535      0.1680000000      15.7399753882      0.1976268232      0.0000000000
0.2036296495      4972407.4865506673      0.1700000000      15.4246259321      0.2047953739      0.0000000000
0.2109790977      4204495.3738150774      0.1720000000      15.1360159861      0.2123134722      0.0000000000
0.2186649930      3556155.9387663775      0.1740000000      14.8721721892      0.2201848154      0.0000000000
0.2266892980      3009148.3093950185      0.1760000000      14.6312354113      0.2284125836      0.0000000000
0.2350533944      2547840.4513700078      0.1780000000      14.4114635713      0.2369994144      0.0000000000
0.2437581055      2158890.6385048274      0.1800000000      14.2112294169      0.2459474223      0.0000000000
0.2528037115      1830950.8082652797      0.1820000000      14.0290179563      0.2552582121      0.0000000000
0.2621899602      1554399.3157499963      0.1840000000      13.8634219544      0.2649328855      0.0000000000
0.2719160801      1321098.4419582209      0.1860000000      13.7131372620      0.2749720509      0.0000000000
0.2819807918      1124181.5834454282      0.1880000000      13.5769572104      0.2853758316      0.0000000000
0.2923823195       957863.1049755219      0.1900000000      13.4537669586      0.2961438737      0.0000000000
0.3031184025       817276.5939835383      0.1920000000      13.3425373970      0.3072753529      0.0000000000
0.3141863055       698332.8096866821      0.1940000000      13.2423195280      0.3187689814      0.0000000000
0.3255828328       597597.3120781066      0.1960000000      13.1522383834      0.3306230178      0.0000000000
0.3373043376       512188.1684638771      0.1980000000      13.0714880506      0.3428352716      0.0000000000
0.3493467357       439687.4742692208      0.2000000000      12.9993257131      0.3554031135      0.0000000000
0.3617055184       378066.8579193673      0.2020000000      12.9350674543      0.3683234830      0.0000000000
0.3743757668       325623.9777205111      0.2040000000      12.8780829443      0.3815928985      0.0000000000
0.3873521652       280930.3536600254      0.2060000000      12.8277915852      0.3952074666      0.0000000000
0.4006290156       242786.7793388493      0.2080000000      12.7836581403      0.4091628918      0.0000000000
0.4142002551       210185.4094232495      0.2100000000      12.7451891670      0.4234544893      0.0000000000
0.4280594703       182279.1234205129      0.2120000000      12.7119296767      0.4380771956      0.0000000000
0.4421999157       158355.2140951021      0.2140000000      12.6834598108      0.4530255823      0.0000000000
0.4566145300       137813.2624573133      0.2160000000      12.6593920389      0.4682938682      0.0000000000
0.4712959545       120147.5208762905      0.2180000000      12.6393684672      0.4838759340      0.0000000000
0.4862365518       104930.9747129534      0.2200000000      12.6230584330      0.4997653369      0.0000000000
0.5014284245        91803.0462129703      0.2220000000      12.6101563487      0.5159553252      0.0000000000
0.5168634340        80458.7333383993      0.2240000000      12.6003795470      0.5324388546      0.0000000000
0.5325332209        70639.7981255199      0.2260000000      12.5934665327      0.5492086043      0.0000000000
0.5484292240        62127.3092663719      0.2280000000      12.5891752263      0.5662569929      0.0000000000
0.5645426999        54735.4307611453      0.2300000000      12.5872814800      0.5835761962      0.0000000000
0.5808647436        48306.2022239352      0.2320000000      12.5875776434      0.6011581637      0.0000000000
0.5973863077        42705.1530333099      0.2340000000      12.5898712098      0.6189946361      0.0000000000
0.6140982226        37817.7075812888      0.2360000000      12.5939837931      0.6370771635      0.0000000000
0.6309912152        33546.0795354068      0.2380000000      12.5997499091      0.6553971218      0.0000000000
0.6480559293        29806.6685729236      0.2400000000      12.6070160228      0.6739457314      0.0000000000
0.6652829435        26527.9481981348      0.2420000000      12.6156397310      0.6927140743      0.0000000000
0.6826627912        23648.5753422525      0.2440000000      12.6254887967      0.7116931120      0.0000000000
0.7001859770        21115.9397678831      0.2460000000      12.6364405466      0.7308737019      0.0000000000
0.7178430022        18884.7993738525      0.2480000000      12.6483810230      0.7502466224      0.0000000000
0.7356243568        16916.2077082876      0.2500000000      12.6612044664      0.7698025622      0.0000000000
0.7535205725        15176.6038800974      0.2520000000      12.6748126751      0.7895321769      0.0000000000
0.7715222151        13637.0106273891      0.2540000000      12.6891144774      0.8094260788      0.0000000000
0.7896199059        12272.3591021543      0.2560000000      12.7040252477      0.8294748594      0.0000000000
0.8078043352        11060.9861535049      0.2580000000      12.7194663857      0.8496691043      0.0000000000
0.8260662785         9984.0650719164      0.2600000000      12.7353649868      0.8699994086      0.0000000000
0.8443966080         9025.2826796814      0.2620000000      12.7516533936      0.8904563915      0.0000000000
0.8627863063         8170.4420363653      0.2640000000      12.7682688883      0.9110307090      0.0000000000
0.8812264776         7407.1799540042      0.2660000000      12.7851532673      0.9317130685      0.0000000000
0.8997083592         6724.7291766556      0.2680000000      12.8022526271      0.9524942408      0.0000000000
0.9182233320         6113.6767215739      0.2700000000      12.8195170054      0.9733650724      0.0000000000
0.9367629296         5565.8017336781      0.2720000000      12.8369001929      0.9943164973      0.0000000000
0.9553188482         5073.8960912914      0.2740000000      12.8543594540      1.0153395477      0.0000000000
0.9738829532         4631.6536418510      0.2760000000      12.8718552093      1.0364253643      0.0000000000
0.9924472881         4233.5323804103      0.2780000000      12.8893509950      1.0575652061      0.0000000000
1.0110040804         3874.6546708870      0.2800000000      12.9068131136      1.0787504594      0.0000000000
1.0295457475         3550.7388290408      0.2820000000      12.9242105488      1.0999726464      0.0000000000
1.0480649025         3258.0050939021      0.2840000000      12.9415147342      1.1212234331      0.0000000000
1.0665543588         2993.1152756493      0.2860000000      12.9586994248      1.1424946363      0.0000000000
1.0850071331         2753.1271090482      0.2880000000      12.9757405142      1.1637782302      0.0000000000
1.1034164500         2535.4296786390      0.2900000000      12.9926159384      1.1850663528      0.0000000000
1.1217757440         2337.7158930006      0.2920000000      13.0093055107      1.2063513111      0.0000000000
1.1400786618         2157.9368753713      0.2940000000      13.0257908265      1.2276255861      0.0000000000
1.1583190637         1994.2734736233      0.2960000000      13.0420551178      1.2488818367      0.0000000000
1.1764910250         1845.1088981370      0.2980000000      13.0580831964      1.2701129044      0.0000000000
1.1945888361         1709.0027458793      0.3000000000      13.0738612480      1.2913118157      0.0000000000
1.2126070031         1584.6728070301      0.3020000000      13.0893768818      1.3124717853      0.0000000000
1.2305402469         1470.9734232025      0.3040000000      13.1046189611      1.3335862184      0.0000000000
1.2483835024         1366.8824946594      0.3060000000      13.1195775050      1.3546487123      0.0000000000
1.2661319176         1271.4851322082      0.3080000000      13.1342436530      1.3756530579      0.0000000000
1.2837808517         1183.9625932907      0.3100000000      13.1486095694      1.3965932409      0.0000000000
1.3013258732         1103.5809644761      0.3120000000      13.1626683756      1.4174634419      0.0000000000
1.3187627578         1029.6804767225      0.3140000000      13.1764141027      1.4382580368      0.0000000000
1.3360874852          961.6707707673      0.3160000000      13.1898416201      1.4589715966      0.0000000000
1.3532962371          899.0193088110      0.3180000000      13.2029465821      1.4795988868      0.0000000000
1.3703853942          841.2462980145      0.3200000000      13.2157253460      1.5001348674      0.0000000000
1.3873515303          787.9213381840      0.3220000000      13.2281749944      1.5205746884      0.0000000000
1.4041914126          738.6536873975      0.3240000000      13.2402931731      1.5409136931      0.0000000000
1.4209019958          693.0922430036      0.3260000000      13.2520781925      1.5611474135      0.0000000000
1.4374804181          650.9193200760      0.3280000000      13.2635288502      1.5812715688      0.0000000000
1.4539239981          611.8470446929      0.3300000000      13.2746444729      1.6012820632      0.0000000000
1.4702302298          575.6148145466      0.3320000000      13.2854248571      1.6211749837      0.0000000000
1.4863967787          541.9860183821      0.3340000000      13.2958702327      1.6409465975      0.0000000000
1.5024214775          510.7468747152      0.3360000000      13.3059812244      1.6605933489      0.0000000000
1.5183023215          481.7022332678      0.3380000000      13.3157588425      1.6801118566      0.0000000000
1.5340374644          454.6749482559      0.3400000000      13.3252044323      1.6994989108      0.0000000000
1.5496252133          429.5042022715      0.3420000000      13.3343196527      1.7187514695      0.0000000000
1.5650640245          406.0429923350      0.3440000000      13.3431064572      1.7378666559      0.0000000000
1.5803524988          384.1575641054      0.3460000000      13.3515670730      1.7568417540      0.0000000000
1.5954893771          363.7256617895      0.3480000000      13.3597039589      1.7756742063      0.0000000000
1.6104735355          344.6360201991      0.3500000000      13.3675198077      1.7943616090      0.0000000000
1.6253039810          326.7862855752      0.3520000000      13.3750175027      1.8129017094      0.0000000000
1.6399798468          310.0834314385      0.3540000000      13.3822001342      1.8312924014      0.0000000000
1.6545003882          294.4419181790      0.3560000000      13.3890709430      1.8495317226      0.0000000000
1.6688649776          279.7836530295      0.3580000000      13.3956333297      1.8676178497      0.0000000000
1.6830731001          266.0366489495      0.3600000000      13.4018908289      1.8855490953      0.0000000000
1.6971243500          253.1349255218      0.3620000000      13.4078471080      1.9033239040      0.0000000000
1.7110184256          241.0180537051      0.3640000000      13.4135059263      1.9209408486      0.0000000000
1.7247551249          229.6304136739      0.3660000000      13.4188711442      1.9383986259      0.0000000000
1.7383343427          218.9206973001      0.3680000000      13.4239467014      1.9556960538      0.0000000000
1.7517560651          208.8418172216      0.3700000000      13.4287366456      1.9728320670      0.0000000000
1.7650203662          199.3501461071      0.3720000000      13.4332450392      1.9898057132      0.0000000000
1.7781274044          190.4057653807      0.3740000000      13.4374760324      2.0066161498      0.0000000000
1.7910774179          181.9716152086      0.3760000000      13.4414338015      2.0232626397      0.0000000000
1.8038707217          174.0135578933      0.3780000000      13.4451225795      2.0397445484      0.0000000000
1.8165077035          166.4999549352      0.3800000000      13.4485466133      2.0560613399      0.0000000000
1.8289888204          159.4016309308      0.3820000000      13.4517101730      2.0722125734      0.0000000000
1.8413145953          152.6915514264      0.3840000000      13.4546175525      2.0881978999      0.0000000000
1.8534856134          146.3446539803      0.3860000000      13.4572730329      2.1040170582      0.0000000000
1.8655025195          140.3377801917      0.3880000000      13.4596809285      2.1196698725      0.0000000000
1.8773660144          134.6493986275      0.3900000000      13.4618455325      2.1351562490      0.0000000000
1.8890768519          129.2595352894      0.3920000000      13.4637711303      2.1504761717      0.0000000000
1.9006358356          124.1496439704      0.3940000000      13.4654620111      2.1656297001      0.0000000000
1.9120438165          119.3024405986      0.3960000000      13.4669224188      2.1806169659      0.0000000000
1.9233016902          114.7019344992      0.3980000000      13.4681566201      2.1954381705      0.0000000000
1.9344103934          110.3332222603      0.4000000000      13.4691688049      2.2100935807      0.0000000000
1.9453709025          106.1823722575      0.4020000000      13.4699631925      2.2245835273      0.0000000000
1.9561842301          102.2365122870      0.4040000000      13.4705439275      2.2389084015      0.0000000000
1.9668514230           98.4835225043      0.4060000000      13.4709151481      2.2530686521      0.0000000000
1.9773735599           94.9121927986      0.4080000000      13.4710809450      2.2670647835      0.0000000000
1.9877517491           91.5120226246      0.4100000000      13.4710453794      2.2808973524      0.0000000000
1.9979871262           88.2731698575      0.4120000000      13.4708124613      2.2945669656      0.0000000000
2.0080808523           85.1865366527      0.4140000000      13.4703861709      2.3080742777      0.0000000000
2.0180341117           82.2434953634      0.4160000000      13.4697704406      2.3214199880      0.0000000000
2.0278481101           79.4360720365      0.4180000000      13.4689691617      2.3346048395      0.0000000000
2.0375240728           76.7567653573      0.4200000000      13.4679861762      2.3476296151      0.0000000000
2.0470632429           74.1985255526      0.4220000000      13.4668252751      2.3604951365      0.0000000000
2.0564668797           71.7548087536      0.4240000000      13.4654902108      2.3732022621      0.0000000000
2.0657362570           69.4194186712      0.4260000000      13.4639846784      2.3857518844      0.0000000000
2.0748726615           67.1865732086      0.4280000000      13.4623123298      2.3981449281      0.0000000000
2.0838773913           65.0508601002      0.4300000000      13.4604767524      2.4103823488      0.0000000000
2.0927517546           63.0071602903      0.4320000000      13.4584815033      2.4224651305      0.0000000000
2.1014970685           61.0506911592      0.4340000000      13.4563300821      2.4343942840      0.0000000000
2.1101146572           59.1769377043      0.4360000000      13.4540259173      2.4461708455      0.0000000000
2.1186058512           57.3816738731      0.4380000000      13.4515724152      2.4577958745      0.0000000000
2.1269719861           55.6609146279      0.4400000000      13.4489729086      2.4692704524      0.0000000000
2.1352144013           54.0109170433      0.4420000000      13.4462306826      2.4805956810      0.0000000000
2.1433344391           52.4281474714      0.4440000000      13.4433489762      2.4917726813      0.0000000000
2.1513334436           50.9092742703      0.4460000000      13.4403309640      2.5028025910      0.0000000000
2.1592127598           49.4511353959      0.4480000000      13.4371797830      2.5136865645      0.0000000000
2.1669737328           48.0508168749      0.4500000000      13.4338985070      2.5244257709      0.0000000000
2.1746177064           46.7054927889      0.4520000000      13.4304901573      2.5350213923      0.0000000000
2.1821460231           45.4125374823      0.4540000000      13.4269577161      2.5454746238      0.0000000000
2.1895600229           44.1694712920      0.4560000000      13.4233041052      2.5557866709      0.0000000000
2.1968610424           42.9739320835      0.4580000000      13.4195321799      2.5659587494      0.0000000000
2.2040504144           41.8236930624      0.4600000000      13.4156447803      2.5759920841      0.0000000000
2.2111294673           40.7166751370      0.4620000000      13.4116446675      2.5858879076      0.0000000000
2.2180995241           39.6508622614      0.4640000000      13.4075345662      2.5956474588      0.0000000000
2.2249619024           38.6243848489      0.4660000000      13.4033171359      2.6052719834      0.0000000000
2.2317179133           37.6354734490      0.4680000000      13.3989950067      2.6147627315      0.0000000000
2.2383688611           36.6824225369      0.4700000000      13.3945707539      2.6241209576      0.0000000000
2.2449160432           35.7636325650      0.4720000000      13.3900469017      2.6333479195      0.0000000000
2.2513607489           34.8775994855      0.4740000000      13.3854259181      2.6424448774      0.0000000000
2.2577042599           34.0228817721      0.4760000000      13.3807102465      2.6514130935      0.0000000000
2.2639478489           33.1981080841      0.4780000000      13.3759022668      2.6602538305      0.0000000000
2.2700927799           32.4019984159      0.4800000000      13.3710043223      2.6689683519      0.0000000000
2.2761403083           31.6333091137      0.4820000000      13.3660186935      2.6775579214      0.0000000000
2.2820916792           30.8908743086      0.4840000000      13.3609476476      2.6860238006      0.0000000000
2.2879481285           30.1735955366      0.4860000000      13.3557933803      2.6943672504      0.0000000000
2.2937108816           29.4804099355      0.4880000000      13.3505580570      2.7025895293      0.0000000000
2.2993811543           28.8103200718      0.4900000000      13.3452438015      2.7106918935      0.0000000000
2.3049601513           28.1623686502      0.4920000000      13.3398526809      2.7186755955      0.0000000000
2.3104490668           27.5356536477      0.4940000000      13.3343867416      2.7265418847      0.0000000000
2.3158490844           26.9292935418      0.4960000000      13.3288479814      2.7342920064      0.0000000000
2.3211613765           26.3424927509      0.4980000000      13.3232383481      2.7419272013      0.0000000000
2.3263871040           25.7744430456      0.5000000000      13.3175597677      2.7494487049      0.0000000000
2.3315274170           25.2244105217      0.5020000000      13.3118141118      2.7568577479      0.0000000000
2.3365834539           24.6916888593      0.5040000000      13.3060032238      2.7641555550      0.0000000000
2.3415563414           24.1755924300      0.5060000000      13.3001289040      2.7713433449      0.0000000000
2.3464471952           23.6754714409      0.5080000000      13.2941929190      2.7784223303      0.0000000000
2.3512571185           23.1907090651      0.5100000000      13.2881970003      2.7853937169      0.0000000000
