# M(M_sol)                 Lambda          n_Bc(fm^-3)         R(km)            m_B(M_sol)        m_Bquar/M_B
0.1507850508     18554455.8137749843      0.1540000000      18.8154686314      0.1509823095      0.0000000000
0.1554753562     15746237.1765264403      0.1560000000      18.2437107375      0.1557387597      0.0000000000
0.1603872436     13371134.7314559817      0.1580000000      17.7225580264      0.1607238369      0.0000000000
0.1655231558     11361735.9352438152      0.1600000000      17.2471718271      0.1659405387      0.0000000000
0.1708853880      9661256.4052260537      0.1620000000      16.8132314507      0.1713917410      0.0000000000
0.1764759447      8221775.4990527937      0.1640000000      16.4168675218      0.1770800525      0.0000000000
0.1822966408      7002804.4736889713      0.1660000000      16.0546126485      0.1830079161      0.0000000000
0.1883490169      5970136.7313060788      0.1680000000      15.7233575484      0.1891775235      0.0000000000
0.1946344206      5094867.8714657975      0.1700000000      15.4203116905      0.1955908958      0.0000000000
0.2011539526      4352579.6594641833      0.1720000000      15.1429656758      0.2022498287      0.0000000000
0.2079084788      3722652.0694510755      0.1740000000      14.8890594954      0.2091559039      0.0000000000
0.2148986127      3187681.9292812846      0.1760000000      14.6565580131      0.2163104698      0.0000000000
0.2221247520      2732980.8849790175      0.1780000000      14.4436230581      0.2237146779      0.0000000000
0.2295870886      2346159.6586313583      0.1800000000      14.2485977122      0.2313694920      0.0000000000
0.2372855194      2016767.1860556717      0.1820000000      14.0699779338      0.2392755958      0.0000000000
0.2452197431      1735989.2520721273      0.1840000000      13.9064044164      0.2474334900      0.0000000000
0.2533892195      1496391.2936853543      0.1860000000      13.7566440478      0.2558434501      0.0000000000
0.2617931643      1291701.1307900050      0.1880000000      13.6195761812      0.2645055185      0.0000000000
0.2704305535      1116626.3891938375      0.1900000000      13.4941816471      0.2734195082      0.0000000000
0.2793001448       966698.6218830204      0.1920000000      13.3795332381      0.2825850229      0.0000000000
0.2884004501       838144.4560496843      0.1940000000      13.2747851463      0.2920014263      0.0000000000
0.2977297232       727774.2950604511      0.1960000000      13.1791624677      0.3016678284      0.0000000000
0.3072860466       632891.3577946072      0.1980000000      13.0919618317      0.3115831727      0.0000000000
0.3170672449       551213.0677960840      0.2000000000      13.0125368906      0.3217461449      0.0000000000
0.3270709190       480806.0962389524      0.2020000000      12.9402952529      0.3321552061      0.0000000000
0.3372944511       420031.5361871682      0.2040000000      12.8746934495      0.3428085960      0.0000000000
0.3477350088       367498.7228447467      0.2060000000      12.8152322514      0.3537043351      0.0000000000
0.3583895663       322026.3642182887      0.2080000000      12.7614537588      0.3648402444      0.0000000000
0.3692548425       282610.1165760833      0.2100000000      12.7129322674      0.3762138784      0.0000000000
0.3803274396       248395.1626963852      0.2120000000      12.6692821300      0.3878226685      0.0000000000
0.3916037012       218653.0760180599      0.2140000000      12.6301421318      0.3996637715      0.0000000000
0.4030798122       192762.4166723074      0.2160000000      12.5951806464      0.4117341725      0.0000000000
0.4147517718       170192.4871232970      0.2180000000      12.5640905870      0.4240306539      0.0000000000
0.4266154094       150489.4750616481      0.2200000000      12.5365877626      0.4365498101      0.0000000000
0.4386664013       133264.8801813589      0.2220000000      12.5124097715      0.4492880631      0.0000000000
0.4509002452       118185.7122660522      0.2240000000      12.4913114048      0.4622416329      0.0000000000
0.4633123313       104966.1663360329      0.2260000000      12.4730683131      0.4754066110      0.0000000000
0.4758978639        93360.7005960445      0.2280000000      12.4574681928      0.4887788748      0.0000000000
0.4886519548        83158.0383793122      0.2300000000      12.4443167981      0.5023541848      0.0000000000
0.5015695813        74176.1862172150      0.2320000000      12.4334322761      0.5161281378      0.0000000000
0.5146456275        66258.1732505774      0.2340000000      12.4246469886      0.5300962094      0.0000000000
0.5278748150        59268.4694822462      0.2360000000      12.4177996682      0.5442536771      0.0000000000
0.5412518509        53089.8403586681      0.2380000000      12.4127466339      0.5585957778      0.0000000000
0.5547713107        47620.8077082476      0.2400000000      12.4093498681      0.5731175795      0.0000000000
0.5684277021        42773.4101897899      0.2420000000      12.4074813158      0.5878140490      0.0000000000
0.5822154938        38471.2705587512      0.2440000000      12.4070236269      0.6026800808      0.0000000000
0.5961290512        34648.0504795216      0.2460000000      12.4078633073      0.6177104262      0.0000000000
0.6101627238        31245.9997160402      0.2480000000      12.4098969776      0.6328997862      0.0000000000
0.6243108102        28214.8138308367      0.2500000000      12.4130268934      0.6482427724      0.0000000000
0.6385675963        25510.6014701791      0.2520000000      12.4171633126      0.6637339473      0.0000000000
0.6529273243        23095.0406518117      0.2540000000      12.4222203421      0.6793677889      0.0000000000
0.6673842462        20934.6040619101      0.2560000000      12.4281195934      0.6951387484      0.0000000000
0.6819325838        18999.9544023872      0.2580000000      12.4347850234      0.7110412054      0.0000000000
0.6965665707        17265.3616973124      0.2600000000      12.4421477753      0.7270695129      0.0000000000
0.7112804558        15708.2494760545      0.2620000000      12.4501422115      0.7432179998      0.0000000000
0.7260685156        14308.7705137017      0.2640000000      12.4587082436      0.7594809850      0.0000000000
0.7409250260        13049.4762829843      0.2660000000      12.4677873337      0.7758527445      0.0000000000
0.7558443292        11914.9836865007      0.2680000000      12.4773275801      0.7923275856      0.0000000000
0.7708207688        10891.7407462597      0.2700000000      12.4872771316      0.8088997741      0.0000000000
0.7858487644         9967.7732783636      0.2720000000      12.4975900949      0.8255636171      0.0000000000
0.8009227759         9132.5008436062      0.2740000000      12.5082224933      0.8423134228      0.0000000000
0.8160373200         8376.5602683526      0.2760000000      12.5191331127      0.8591435194      0.0000000000
0.8311869787         7691.6562871395      0.2780000000      12.5302835830      0.8760482636      0.0000000000
0.8463663996         7070.4325672771      0.2800000000      12.5416377646      0.8930220420      0.0000000000
0.8615703077         6506.3565203527      0.2820000000      12.5531622208      0.9100592839      0.0000000000
0.8767935035         5993.6218745311      0.2840000000      12.5648254941      0.9271544595      0.0000000000
0.8920308656         5527.0630288108      0.2860000000      12.5765978051      0.9443020833      0.0000000000
0.9072773682         5102.0759616915      0.2880000000      12.5884522116      0.9614967342      0.0000000000
0.9225280709         4714.5566656994      0.2900000000      12.6003631634      0.9787330443      0.0000000000
0.9377781211         4360.8421862572      0.2920000000      12.6123063065      0.9960057025      0.0000000000
0.9530227674         4037.6581053620      0.2940000000      12.6242593725      1.0133094701      0.0000000000
0.9682573607         3742.0750582856      0.2960000000      12.6362018862      1.0306391827      0.0000000000
0.9834773481         3471.4703202456      0.2980000000      12.6481142733      1.0479897443      0.0000000000
0.9986782821         3223.4928410290      0.3000000000      12.6599785061      1.0653561385      0.0000000000
1.0138558268         2996.0322166505      0.3020000000      12.6717782809      1.0827334363      0.0000000000
1.0290057459         2787.1945798885      0.3040000000      12.6834977478      1.1001167832      0.0000000000
1.0441239136         2595.2757606982      0.3060000000      12.6951223034      1.1175014135      0.0000000000
1.0592063211         2418.7428078587      0.3080000000      12.7066390402      1.1348826575      0.0000000000
1.0742490665         2256.2140191455      0.3100000000      12.7180355922      1.1522559321      0.0000000000
1.0892483582         2106.4446076248      0.3120000000      12.7293003196      1.1696167452      0.0000000000
1.1042005226         1968.3104159175      0.3140000000      12.7404230362      1.1869607057      0.0000000000
1.1191019964         1840.7960819227      0.3160000000      12.7513940459      1.2042835162      0.0000000000
1.1339493287         1722.9835592875      0.3180000000      12.7622043636      1.2215809762      0.0000000000
1.1487391851         1614.0418212657      0.3200000000      12.7728460613      1.2388489880      0.0000000000
1.1634683421         1513.2183528451      0.3220000000      12.7833116713      1.2560835520      0.0000000000
1.1781336903         1419.8307431673      0.3240000000      12.7935945255      1.2732807710      0.0000000000
1.1927322318         1333.2597395263      0.3260000000      12.8036884863      1.2904368485      0.0000000000
1.2072610817         1252.9429539234      0.3280000000      12.8135881620      1.3075480925      0.0000000000
1.2217174627         1178.3690709960      0.3300000000      12.8232883448      1.3246109093      0.0000000000
1.2360987120         1109.0729870923      0.3320000000      12.8327848715      1.3416218135      0.0000000000
1.2504022721         1044.6312441694      0.3340000000      12.8420736915      1.3585774186      0.0000000000
1.2646256952          984.6577868179      0.3360000000      12.8511514220      1.3754744428      0.0000000000
1.2787666383          928.8006648070      0.3380000000      12.8600148938      1.3923097052      0.0000000000
1.2928228629          876.7385181910      0.3400000000      12.8686615581      1.4090801263      0.0000000000
1.3067922355          828.1777713676      0.3420000000      12.8770891734      1.4257827298      0.0000000000
1.3206727239          782.8500817438      0.3440000000      12.8852958565      1.4424146395      0.0000000000
1.3344623956          740.5098837764      0.3460000000      12.8932800850      1.4589730789      0.0000000000
1.3481594177          700.9321916335      0.3480000000      12.9010406933      1.4754553720      0.0000000000
1.3617620511          663.9111731831      0.3500000000      12.9085765855      1.4918589375      0.0000000000
1.3752686560          629.2575943266      0.3520000000      12.9158874091      1.5081812969      0.0000000000
1.3886776789          596.7982552013      0.3540000000      12.9229722922      1.5244200594      0.0000000000
1.4019876658          566.3736432191      0.3560000000      12.9298316483      1.5405729398      0.0000000000
1.4151972452          537.8374695514      0.3580000000      12.9364653597      1.5566377387      0.0000000000
1.4283051335          511.0550886042      0.3600000000      12.9428735931      1.5726123499      0.0000000000
1.4413101364          485.9023932904      0.3620000000      12.9490572329      1.5884947633      0.0000000000
1.4542111344          462.2653778162      0.3640000000      12.9550164014      1.6042830489      0.0000000000
1.4670070978          440.0387070345      0.3660000000      12.9607524673      1.6199753753      0.0000000000
1.4796970716          419.1252568699      0.3680000000      12.9662664213      1.6355699925      0.0000000000
1.4922801749          399.4355420345      0.3700000000      12.9715591452      1.6510652327      0.0000000000
1.5047556057          380.8867705061      0.3720000000      12.9766321559      1.6664595165      0.0000000000
1.5171226340          363.4023748603      0.3740000000      12.9814870004      1.6817513454      0.0000000000
1.5293805992          346.9116335838      0.3760000000      12.9861252764      1.6969393002      0.0000000000
1.5415289083          331.3491463900      0.3780000000      12.9905485508      1.7120220387      0.0000000000
1.5535670341          316.6542634385      0.3800000000      12.9947583728      1.7269982951      0.0000000000
1.5654945179          302.7707792895      0.3820000000      12.9987569934      1.7418668837      0.0000000000
1.5773109580          289.6466685404      0.3840000000      13.0025460438      1.7566266858      0.0000000000
1.5890160192          277.2334519204      0.3860000000      13.0061280164      1.7712766622      0.0000000000
1.6006094189          265.4863805724      0.3880000000      13.0095047518      1.7858158361      0.0000000000
1.6120909329          254.3637583089      0.3900000000      13.0126784121      1.8002433020      0.0000000000
1.6234603913          243.8268331909      0.3920000000      13.0156512059      1.8145582208      0.0000000000
1.6347176776          233.8395848927      0.3940000000      13.0184255048      1.8287598189      0.0000000000
1.6458627266          224.3684155021      0.3960000000      13.0210038240      1.8428473873      0.0000000000
1.6568955177          215.3821950038      0.3980000000      13.0233881624      1.8568202728      0.0000000000
1.6678160827          206.8517795798      0.4000000000      13.0255812515      1.8706778888      0.0000000000
1.6786244938          198.7501060400      0.4020000000      13.0275852817      1.8844197009      0.0000000000
1.6893208710          191.0518112940      0.4040000000      13.0294029738      1.8980452366      0.0000000000
1.6999053732          183.7333414641      0.4060000000      13.0310367364      1.9115540747      0.0000000000
1.7103781996          176.7726583532      0.4080000000      13.0324890296      1.9249458471      0.0000000000
1.7207395894          170.1491498798      0.4100000000      13.0337625623      1.9382202398      0.0000000000
1.7309898164          163.8435916145      0.4120000000      13.0348596866      1.9513769858      0.0000000000
1.7411291905          157.8379907775      0.4140000000      13.0357829806      1.9644158674      0.0000000000
1.7511580583          152.1154587975      0.4160000000      13.0365353983      1.9773367181      0.0000000000
1.7610767917          146.6602907794      0.4180000000      13.0371188947      1.9901394073      0.0000000000
1.7708858002          141.4576810216      0.4200000000      13.0375364771      2.0028238576      0.0000000000
1.7805855170          136.4938281558      0.4220000000      13.0377903053      2.0153900265      0.0000000000
1.7901764103          131.7556885711      0.4240000000      13.0378835350      2.0278379215      0.0000000000
1.7996589678          127.2311355551      0.4260000000      13.0378183591      2.0401675808      0.0000000000
1.8090337069          122.9087215967      0.4280000000      13.0375975476      2.0523790860      0.0000000000
1.8183011661          118.7777280294      0.4300000000      13.0372234799      2.0644725523      0.0000000000
1.8274619065          114.8281039705      0.4320000000      13.0366984656      2.0764481294      0.0000000000
1.8365165162          111.0503126797      0.4340000000      13.0360256370      2.0883060087      0.0000000000
1.8454655969          107.4354895770      0.4360000000      13.0352071183      2.1000464055      0.0000000000
1.8543097718          103.9752594250      0.4380000000      13.0342453141      2.1116695692      0.0000000000
1.8630496834          100.6617266887      0.4400000000      13.0331428281      2.1231757817      0.0000000000
1.8716859911           97.4874555203      0.4420000000      13.0319022040      2.1345653533      0.0000000000
1.8802193699           94.4454464679      0.4440000000      13.0305259063      2.1458386218      0.0000000000
1.8886505094           91.5291134588      0.4460000000      13.0290163107      2.1569959512      0.0000000000
1.8969801137           88.7322402564      0.4480000000      13.0273758207      2.1680377314      0.0000000000
1.9052088985           86.0489777018      0.4500000000      13.0256066053      2.1789643753      0.0000000000
1.9133375944           83.4737797386      0.4520000000      13.0237111746      2.1897763223      0.0000000000
1.9213669441           81.0013962726      0.4540000000      13.0216922213      2.2004740357      0.0000000000
1.9292976956           78.6269355231      0.4560000000      13.0195514918      2.2110579930      0.0000000000
1.9371306114           76.3457197629      0.4580000000      13.0172915348      2.2215286985      0.0000000000
1.9448664604           74.1533485602      0.4600000000      13.0149144105      2.2318866728      0.0000000000
1.9525060232           72.0456323140      0.4620000000      13.0124227922      2.2421324595      0.0000000000
1.9600500835           70.0186541950      0.4640000000      13.0098185334      2.2522666141      0.0000000000
1.9674994346           68.0686646871      0.4660000000      13.0071040242      2.2622897128      0.0000000000
1.9748548744           66.1921479509      0.4680000000      13.0042812736      2.2722023454      0.0000000000
1.9821172067           64.3857553931      0.4700000000      13.0013524225      2.2820051177      0.0000000000
1.9892872407           62.6463135830      0.4720000000      12.9983196435      2.2916986505      0.0000000000
1.9963657891           60.9708222780      0.4740000000      12.9951849760      2.3012835769      0.0000000000
2.0033536688           59.3564311663      0.4760000000      12.9919505290      2.3107605436      0.0000000000
2.0102516985           57.8004530100      0.4780000000      12.9886180874      2.3201302074      0.0000000000
2.0170607026           56.3002959704      0.4800000000      12.9851900717      2.3293932409      0.0000000000
2.0237815037           54.8535514646      0.4820000000      12.9816681097      2.3385503217      0.0000000000
2.0304149292           53.4578948668      0.4840000000      12.9780543809      2.3476021417      0.0000000000
2.0369618050           52.1111401105      0.4860000000      12.9743506027      2.3565493989      0.0000000000
2.0434229590           50.8112033873      0.4880000000      12.9705586631      2.3653928011      0.0000000000
2.0497992200           49.5560967944      0.4900000000      12.9666805539      2.3741330654      0.0000000000
2.0560914147           48.3439439408      0.4920000000      12.9627179077      2.3827709136      0.0000000000
2.0623003717           47.1729421999      0.4940000000      12.9586727238      2.3913070778      0.0000000000
2.0684269175           46.0413867026      0.4960000000      12.9545467660      2.3997422945      0.0000000000
2.0744718764           44.9476636305      0.4980000000      12.9503416234      2.4080773049      0.0000000000
2.0804360737           43.8902078530      0.5000000000      12.9460593497      2.4163128592      0.0000000000
2.0863203293           42.8675674712      0.5020000000      12.9417012548      2.4244497071      0.0000000000
2.0921254635           41.8783323897      0.5040000000      12.9372691434      2.4324886066      0.0000000000
2.0978522934           40.9211642479      0.5060000000      12.9327647046      2.4404303187      0.0000000000
2.1035016336           39.9947857178      0.5080000000      12.9281895898      2.4482756077      0.0000000000
2.1090742954           39.0979812862      0.5100000000      12.9235453918      2.4560252411      0.0000000000
2.1145710867           38.2295920813      0.5120000000      12.9188336787      2.4636799885      0.0000000000
