# M(M_sol)                 Lambda          n_Bc(fm^-3)         R(km)            m_B(M_sol)        m_Bquar/M_B
0.1562795059     42152382.3604276404      0.0890000000      23.2563073307      0.1565811278      0.0000000000
0.1633600684     34261128.0806916952      0.0910000000      22.2727664507      0.1637654708      0.0000000000
0.1705795022     28078977.9266902544      0.0930000000      21.4402802831      0.1710977566      0.0000000000
0.1779284541     23179680.8422471099      0.0950000000      20.7284995533      0.1785688153      0.0000000000
0.1853985488     19259451.8998389319      0.0970000000      20.1145314475      0.1861704459      0.0000000000
0.1929822534     16096462.9023994207      0.0990000000      19.5808027909      0.1938952816      0.0000000000
0.2006727738     13525627.3400961608      0.1010000000      19.1136129545      0.2017366869      0.0000000000
0.2084639749     11422215.8581187595      0.1030000000      18.7021328659      0.2096886791      0.0000000000
0.2163503161      9690832.2954632957      0.1050000000      18.3376990474      0.2177458643      0.0000000000
0.2243267988      8257718.6300420128      0.1070000000      18.0133027037      0.2259033868      0.0000000000
0.2323889180      7065341.6941500073      0.1090000000      17.7232189840      0.2341568807      0.0000000000
0.2405326304      6068448.5905635962      0.1110000000      17.4627284620      0.2425024400      0.0000000000
0.2487237768      5234029.4083717987      0.1130000000      17.2287339433      0.2509052366      0.0000000000
0.2568066013      4543994.9003529642      0.1150000000      17.0213851056      0.2592053728      0.0000000000
0.2648537077      3963947.0066908519      0.1170000000      16.8349488782      0.2674771631      0.0000000000
0.2728902319      3471955.0830743625      0.1190000000      16.6660189184      0.2757463597      0.0000000000
0.2809269721      3051972.5739607443      0.1210000000      16.5121336357      0.2840240467      0.0000000000
0.2889703872      2691545.8605511212      0.1230000000      16.3713392849      0.2923168785      0.0000000000
0.2970250379      2380782.3165527494      0.1250000000      16.2420324735      0.3006295780      0.0000000000
0.3050945103      2111710.6670567696      0.1270000000      16.1228723239      0.3089658817      0.0000000000
0.3131818511      1877841.8949753067      0.1290000000      16.0127238451      0.3173289844      0.0000000000
0.3212897909      1673849.9250828826      0.1310000000      15.9106171360      0.3257217679      0.0000000000
0.3294208732      1495333.1894973202      0.1330000000      15.8157174474      0.3341469330      0.0000000000
0.3375775294      1338631.3279622905      0.1350000000      15.7273016627      0.3426070762      0.0000000000
0.3457621270      1200683.9264423980      0.1370000000      15.6447401167      0.3511047395      0.0000000000
0.3539769935      1078919.7478595744      0.1390000000      15.5674817668      0.3596424348      0.0000000000
0.3622244399       971168.1563562503      0.1410000000      15.4950424641      0.3682226682      0.0000000000
0.3705067653       875589.2400741276      0.1430000000      15.4269949452      0.3768479448      0.0000000000
0.3788262661       790616.9399375515      0.1450000000      15.3629608265      0.3855207782      0.0000000000
0.3871852388       714913.7842552890      0.1470000000      15.3026043908      0.3942436935      0.0000000000
0.3955859765       647332.9605460963      0.1490000000      15.2456260327      0.4030192243      0.0000000000
0.4040307713       586888.1489120759      0.1510000000      15.1917582305      0.4118499145      0.0000000000
0.4125219077       532728.5156851067      0.1530000000      15.1407613936      0.4207383119      0.0000000000
0.4210616624       484117.6271030736      0.1550000000      15.0924202260      0.4296869684      0.0000000000
0.4296522984       440416.3299320917      0.1570000000      15.0465407984      0.4386984334      0.0000000000
0.4382960605       401068.4264776026      0.1590000000      15.0029481609      0.4477752493      0.0000000000
0.4469951776       365588.6762201564      0.1610000000      14.9614841991      0.4569199545      0.0000000000
0.4557518293       333552.6571472400      0.1630000000      14.9220056125      0.4661350477      0.0000000000
0.4645681818       304588.1684659137      0.1650000000      14.8843821826      0.4754230261      0.0000000000
0.4734463576       278368.1224187724      0.1670000000      14.8484955197      0.4847863534      0.0000000000
0.4823884319       254604.4393235749      0.1690000000      14.8142376085      0.4942274557      0.0000000000
0.4913964323       233042.9040542025      0.1710000000      14.7815101402      0.5037487219      0.0000000000
0.5004723277       213458.6291760839      0.1730000000      14.7502227959      0.5133524912      0.0000000000
0.5096180297       195652.3405158150      0.1750000000      14.7202931868      0.5230410548      0.0000000000
0.5188353804       179447.0864139641      0.1770000000      14.6916453700      0.5328166427      0.0000000000
0.5281261507       164685.5302913135      0.1790000000      14.6642097953      0.5426814221      0.0000000000
0.5374920351       151227.4212449410      0.1810000000      14.6379222189      0.5526374910      0.0000000000
0.5469346454       138947.5931245845      0.1830000000      14.6127234388      0.5626868721      0.0000000000
0.5564555046       127734.1846060620      0.1850000000      14.5885587674      0.5728315054      0.0000000000
0.5660560611       117486.9786642368      0.1870000000      14.5653774861      0.5830732634      0.0000000000
0.5757376178       108116.1702411149      0.1890000000      14.5431326681      0.5934138751      0.0000000000
0.5855014242        99541.0557747612      0.1910000000      14.5217806095      0.6038550234      0.0000000000
0.5953486066        91689.0866579747      0.1930000000      14.5012805958      0.6143982708      0.0000000000
0.6052801830        84494.9252093993      0.1950000000      14.4815947102      0.6250450747      0.0000000000
0.6152970566        77899.6547787077      0.1970000000      14.4626874142      0.6357967795      0.0000000000
0.6254000134        71850.0971430640      0.1990000000      14.4445255092      0.6466546140      0.0000000000
0.6355897185        66298.1838235661      0.2010000000      14.4270777793      0.6576196862      0.0000000000
0.6458667131        61200.4248113413      0.2030000000      14.4103148719      0.6686929802      0.0000000000
0.6562314113        56517.4106835208      0.2050000000      14.3942090103      0.6798753515      0.0000000000
0.6666840981        52213.4316291015      0.2070000000      14.3787341118      0.6911675242      0.0000000000
0.6772249277        48256.0469010023      0.2090000000      14.3638653143      0.7025700882      0.0000000000
0.6878539199        44615.8091973328      0.2110000000      14.3495791146      0.7140834953      0.0000000000
0.6985709604        41265.9275818215      0.2130000000      14.3358530911      0.7257080575      0.0000000000
0.7093757984        38182.0259408627      0.2150000000      14.3226658834      0.7374439442      0.0000000000
0.7202680468        35341.8915164386      0.2170000000      14.3099969859      0.7492911816      0.0000000000
0.7312471818        32725.2888022209      0.2190000000      14.2978269874      0.7612496506      0.0000000000
0.7423125275        30313.7568121191      0.2210000000      14.2861368938      0.7733190694      0.0000000000
0.7534633112        28090.4344648337      0.2230000000      14.2749087642      0.7854990533      0.0000000000
0.7646985842        26039.9323624716      0.2250000000      14.2641251080      0.7977890260      0.0000000000
0.7760172761        24148.1770210534      0.2270000000      14.2537691151      0.8101882789      0.0000000000
0.7874181819        22402.2996197212      0.2290000000      14.2438244608      0.8226959550      0.0000000000
0.7988999640        20790.5272012790      0.2310000000      14.2342753828      0.8353110507      0.0000000000
0.8104611549        19302.0788496611      0.2330000000      14.2251065487      0.8480324170      0.0000000000
0.8221001593        17927.0775442493      0.2350000000      14.2163030491      0.8608587609      0.0000000000
0.8338152562        16656.4755689276      0.2370000000      14.2078503799      0.8737886463      0.0000000000
0.8456046028        15481.9769593054      0.2390000000      14.1997343695      0.8868204977      0.0000000000
0.8574662379        14395.9722844506      0.2410000000      14.1919412942      0.8999526017      0.0000000000
0.8693980849        13391.4771230457      0.2430000000      14.1844576327      0.9131831102      0.0000000000
0.8813979566        12462.0836558664      0.2450000000      14.1772702696      0.9265100438      0.0000000000
0.8934635584        11601.9061344365      0.2470000000      14.1703663036      0.9399312941      0.0000000000
0.9055924940        10805.5380229525      0.2490000000      14.1637331583      0.9534446296      0.0000000000
0.9177822690        10068.0119704982      0.2510000000      14.1573585349      0.9670476978      0.0000000000
0.9300302964         9384.7621667235      0.2530000000      14.1512303310      0.9807380304      0.0000000000
0.9423339020         8751.5899227489      0.2550000000      14.1453367859      0.9945130482      0.0000000000
0.9546903286         8164.6350540462      0.2570000000      14.1396663044      1.0083700648      0.0000000000
0.9670967428         7620.3450398835      0.2590000000      14.1342076030      1.0223062932      0.0000000000
0.9795502393         7115.4515533375      0.2610000000      14.1289495751      1.0363188493      0.0000000000
0.9920478477         6646.9462171049      0.2630000000      14.1238814104      1.0504047587      0.0000000000
1.0045865367         6212.0595430613      0.2650000000      14.1189924467      1.0645609606      0.0000000000
1.0171632220         5808.2407359400      0.2670000000      14.1142723592      1.0787843157      0.0000000000
1.0297747700         5433.1408929899      0.2690000000      14.1097109855      1.0930716094      0.0000000000
1.0424180055         5084.5946290690      0.2710000000      14.1052983985      1.1074195600      0.0000000000
1.0550897157         4760.6085591409      0.2730000000      14.1010249345      1.1218248222      0.0000000000
1.0677866579         4459.3430394678      0.2750000000      14.0968811203      1.1362839952      0.0000000000
1.0805055638         4179.1036218478      0.2770000000      14.0928577766      1.1507936270      0.0000000000
1.0932431462         3918.3266883899      0.2790000000      14.0889458821      1.1653502215      0.0000000000
1.1059961043         3675.5708202549      0.2810000000      14.0851367222      1.1799502437      0.0000000000
1.1187611291         3449.5057563751      0.2830000000      14.0814217806      1.1945901260      0.0000000000
1.1315349091         3238.9039187725      0.2850000000      14.0777927774      1.2092662737      0.0000000000
1.1443141353         3042.6324399057      0.2870000000      14.0742416710      1.2239750706      0.0000000000
1.1570955069         2859.6454719175      0.2890000000      14.0707606688      1.2387128855      0.0000000000
1.1698757359         2688.9767724474      0.2910000000      14.0673421767      1.2534760768      0.0000000000
1.1826515521         2529.7344966796      0.2930000000      14.0639789050      1.2682609988      0.0000000000
1.1954197079         2381.0943774869      0.2950000000      14.0606637536      1.2830640062      0.0000000000
1.2081769823         2242.2948035216      0.2970000000      14.0573898519      1.2978814595      0.0000000000
1.2209201864         2112.6316893854      0.2990000000      14.0541506137      1.3127097308      0.0000000000
1.2336461659         1991.4543129526      0.3010000000      14.0509396246      1.3275452077      0.0000000000
1.2463518064         1878.1606669685      0.3030000000      14.0477507272      1.3423842979      0.0000000000
1.2590340365         1772.1939965875      0.3050000000      14.0445780509      1.3572234350      0.0000000000
1.2716898313         1673.0391122087      0.3070000000      14.0414158347      1.3720590814      0.0000000000
1.2843162159         1580.2193732979      0.3090000000      14.0382586902      1.3868877331      0.0000000000
1.2969102684         1493.2932029479      0.3110000000      14.0351013220      1.4017059236      0.0000000000
1.3094691224         1411.8520741630      0.3130000000      14.0319387587      1.4165102275      0.0000000000
1.3219899703         1335.5173593696      0.3150000000      14.0287661859      1.4312972640      0.0000000000
1.3344700654         1263.9383094445      0.3170000000      14.0255790253      1.4460637007      0.0000000000
1.3469067237         1196.7899167893      0.3190000000      14.0223729162      1.4608062557      0.0000000000
1.3592973267         1133.7707984955      0.3210000000      14.0191437026      1.4755217016      0.0000000000
1.3716393230         1074.6014848922      0.3230000000      14.0158874533      1.4902068682      0.0000000000
1.3839302295         1019.0227949815      0.3250000000      14.0126003999      1.5048586439      0.0000000000
1.3961676323          966.7942041428      0.3270000000      14.0092789976      1.5194739784      0.0000000000
1.4083491899          917.6924770176      0.3290000000      14.0059198953      1.5340498861      0.0000000000
1.4204726322          871.5103460955      0.3310000000      14.0025199366      1.5485834465      0.0000000000
1.4325357622          828.0553695971      0.3330000000      13.9990761216      1.5630718061      0.0000000000
1.4445364569          787.1486719573      0.3350000000      13.9955856766      1.5775121811      0.0000000000
1.4564726670          748.6240493846      0.3370000000      13.9920459408      1.5919018573      0.0000000000
1.4683424180          712.3270285600      0.3390000000      13.9884544905      1.6062381921      0.0000000000
1.4801438101          678.1139386051      0.3410000000      13.9848090279      1.6205186151      0.0000000000
1.4918750181          645.8511265030      0.3430000000      13.9811074386      1.6347406297      0.0000000000
1.5035342916          615.4142036864      0.3450000000      13.9773477218      1.6489018125      0.0000000000
1.5151199544          586.6874349539      0.3470000000      13.9735280810      1.6629998149      0.0000000000
1.5266304047          559.5629778339      0.3490000000      13.9696468535      1.6770323634      0.0000000000
1.5380641139          533.9404399553      0.3510000000      13.9657024901      1.6909972590      0.0000000000
1.5494196265          509.7262437913      0.3530000000      13.9616936019      1.7048923781      0.0000000000
1.5606955594          486.8331564889      0.3550000000      13.9576189326      1.7187156723      0.0000000000
1.5718906008          465.1798601940      0.3570000000      13.9534773511      1.7324651679      0.0000000000
1.5830035099          444.6904744694      0.3590000000      13.9492678345      1.7461389663      0.0000000000
1.5940331153          425.2941875855      0.3610000000      13.9449894880      1.7597352428      0.0000000000
1.6049783142          406.9249580771      0.3630000000      13.9406415321      1.7732522467      0.0000000000
1.6158380716          389.5210565525      0.3650000000      13.9362233097      1.7866883006      0.0000000000
1.6266114185          373.0248434934      0.3670000000      13.9317342110      1.8000417994      0.0000000000
1.6372974516          357.3824413685      0.3690000000      13.9271738181      1.8133112107      0.0000000000
1.6478953310          342.5435168151      0.3710000000      13.9225417267      1.8264950719      0.0000000000
1.6584042796          328.4609794643      0.3730000000      13.9178376693      1.8395919916      0.0000000000
1.6688235816          315.0907723076      0.3750000000      13.9130614215      1.8526006468      0.0000000000
1.6791525809          302.3916892738      0.3770000000      13.9082128944      1.8655197830      0.0000000000
1.6893906798          290.3251331932      0.3790000000      13.9032920515      1.8783482128      0.0000000000
1.6995373378          278.8549636661      0.3810000000      13.8982989224      1.8910848148      0.0000000000
1.7095920694          267.9473366228      0.3830000000      13.8932336046      1.9037285317      0.0000000000
1.7195544441          257.5705180704      0.3850000000      13.8880963025      1.9162783711      0.0000000000
1.7294240827          247.6947778369      0.3870000000      13.8828872482      1.9287334011      0.0000000000
1.7392006579          238.2922056693      0.3890000000      13.8776067273      1.9410927523      0.0000000000
1.7488838919          229.3366257061      0.3910000000      13.8722551282      1.9533556146      0.0000000000
1.7584735546          220.8034920358      0.3930000000      13.8668328398      1.9655212361      0.0000000000
1.7679694628          212.6697384449      0.3950000000      13.8613403400      1.9775889221      0.0000000000
1.7773714781          204.9136904072      0.3970000000      13.8557781205      1.9895580337      0.0000000000
1.7866795057          197.5150208523      0.3990000000      13.8501467495      2.0014279862      0.0000000000
1.7958934930          190.4545803868      0.4010000000      13.8444468244      2.0131982479      0.0000000000
1.8050134281          183.7144020860      0.4030000000      13.8386789779      2.0248683388      0.0000000000
1.8140393381          177.2775643861      0.4050000000      13.8328438793      2.0364378289      0.0000000000
1.8229712879          171.1281507114      0.4070000000      13.8269422370      2.0479063371      0.0000000000
1.8318093789          165.2511818366      0.4090000000      13.8209748031      2.0592735298      0.0000000000
1.8405537471          159.6325466409      0.4110000000      13.8149423123      2.0705391192      0.0000000000
1.8492045623          154.2589698304      0.4130000000      13.8088455848      2.0817028625      0.0000000000
1.8577620267          149.1179223711      0.4150000000      13.8026854254      2.0927645600      0.0000000000
1.8662263730          144.1976108869      0.4170000000      13.7964626787      2.1037240540      0.0000000000
1.8745978638          139.4869072520      0.4190000000      13.7901782084      2.1145812274      0.0000000000
1.8828767901          134.9753123070      0.4210000000      13.7838329007      2.1253360029      0.0000000000
1.8910634695          130.6529247609      0.4230000000      13.7774276351      2.1359883404      0.0000000000
1.8991582460          126.5103993886      0.4250000000      13.7709633451      2.1465382369      0.0000000000
1.9071614879          122.5389069813      0.4270000000      13.7644409360      2.1569857250      0.0000000000
1.9150735872          118.7301095592      0.4290000000      13.7578613641      2.1673308713      0.0000000000
1.9228949589          115.0761336805      0.4310000000      13.7512255697      2.1775737763      0.0000000000
1.9306260372          111.5695293048      0.4330000000      13.7445345135      2.1877145696      0.0000000000
1.9382672786          108.2032576934      0.4350000000      13.7377891596      2.1977534139      0.0000000000
1.9458191578          104.9706574398      0.4370000000      13.7309904846      2.2076905006      0.0000000000
1.9532821680          101.8654312403      0.4390000000      13.7241394672      2.2175260494      0.0000000000
1.9606568192           98.8816106780      0.4410000000      13.7172370804      2.2272603068      0.0000000000
1.9679436377           96.0135529999      0.4430000000      13.7102843169      2.2368935456      0.0000000000
1.9751431650           93.2559073776      0.4450000000      13.7032821700      2.2464260635      0.0000000000
1.9822559569           90.6036096870      0.4470000000      13.6962316209      2.2558581822      0.0000000000
