# M(M_sol)                 Lambda          n_Bc(fm^-3)         R(km)            m_B(M_sol)        m_Bquar/M_B
0.1506800871     37973003.8375178576      0.1130000000      22.5043176416      0.1508623406      0.0000000000
0.1542927907     33475729.2008730918      0.1150000000      21.8935979298      0.1545222951      0.0000000000
0.1579414238     29602703.8901217319      0.1170000000      21.3387229672      0.1582206237      0.0000000000
0.1616489528     26231923.0878725760      0.1190000000      20.8295016524      0.1619806790      0.0000000000
0.1654254018     23281768.8825292848      0.1210000000      20.3595863055      0.1658127294      0.0000000000
0.1692785559     20688950.1414743550      0.1230000000      19.9240617543      0.1697247935      0.0000000000
0.1732153727     18402588.0543730222      0.1250000000      19.5189395122      0.1737240692      0.0000000000
0.1772424488     16381003.3652243316      0.1270000000      19.1409145181      0.1778174064      0.0000000000
0.1813662146     14589540.7238382176      0.1290000000      18.7872075623      0.1820115047      0.0000000000
0.1855930310     12999084.1577297654      0.1310000000      18.4554595135      0.1863130126      0.0000000000
0.1899292327     11584961.1555752624      0.1330000000      18.1436521693      0.1907285717      0.0000000000
0.1943811539     10326093.0037423875      0.1350000000      17.8500475053      0.1952648442      0.0000000000
0.1989551362      9204350.7754448596      0.1370000000      17.5731399863      0.1999285215      0.0000000000
0.2036575310      8204053.2060353830      0.1390000000      17.3116192827      0.2047263282      0.0000000000
0.2084946916      7311564.5438331673      0.1410000000      17.0643390929      0.2096650149      0.0000000000
0.2134729669      6514964.1791202491      0.1430000000      16.8302918392      0.2147513526      0.0000000000
0.2185986921      5803789.5946884518      0.1450000000      16.6085882082      0.2199921250      0.0000000000
0.2238781711      5168821.7636678396      0.1470000000      16.3984394309      0.2253941111      0.0000000000
0.2293176660      4601909.6370685156      0.1490000000      16.1991430246      0.2309640763      0.0000000000
0.2349233849      4095822.6015367047      0.1510000000      16.0100697229      0.2367087603      0.0000000000
0.2407014390      3644133.7062671357      0.1530000000      15.8306549307      0.2426348346      0.0000000000
0.2466578673      3241111.9580118787      0.1550000000      15.6603877278      0.2487489291      0.0000000000
0.2527985870      2881640.2764332523      0.1570000000      15.4988041197      0.2550575820      0.0000000000
0.2591293863      2561142.1874626330      0.1590000000      15.3454812107      0.2615672333      0.0000000000
0.2656559022      2275518.1183244521      0.1610000000      15.2000306102      0.2682842029      0.0000000000
0.2723836045      2021093.3630298590      0.1630000000      15.0620944451      0.2752146751      0.0000000000
0.2793177749      1794571.9229651422      0.1650000000      14.9313411914      0.2823646776      0.0000000000
0.2864634873      1592995.1974905205      0.1670000000      14.8074617759      0.2897400614      0.0000000000
0.2938255943      1413707.2558668351      0.1690000000      14.6901671092      0.2973464879      0.0000000000
0.3014086995      1254323.8736175189      0.1710000000      14.5791848593      0.3051894000      0.0000000000
0.3092171623      1112705.2265991818      0.1730000000      14.4742581784      0.3132740275      0.0000000000
0.3172550510       986931.4455371491      0.1750000000      14.3751429834      0.3216053385      0.0000000000
0.3255261494       875280.5975347169      0.1770000000      14.2816070722      0.3301880455      0.0000000000
0.3340339330       776209.5682667443      0.1790000000      14.1934283547      0.3390265810      0.0000000000
0.3427815576       688336.0807314763      0.1810000000      14.1103938465      0.3481250844      0.0000000000
0.3517718462       610422.8326052438      0.1830000000      14.0322985900      0.3574873878      0.0000000000
0.3610072767       541363.6309627435      0.1850000000      13.9589452911      0.3671170024      0.0000000000
0.3704899715       480169.8649246579      0.1870000000      13.8901431372      0.3770171056      0.0000000000
0.3802216882       425959.0457009508      0.1890000000      13.8257076646      0.3871905310      0.0000000000
0.3902038115       377944.0272324916      0.1910000000      13.7654600913      0.3976397571      0.0000000000
0.4004373470       335423.3241964517      0.1930000000      13.7092269955      0.4083668995      0.0000000000
0.4109229133       297772.3877119216      0.1950000000      13.6568399663      0.4193737006      0.0000000000
0.4216607414       264435.6220386762      0.1970000000      13.6081356444      0.4306615264      0.0000000000
0.4326506682       234919.1941431172      0.1990000000      13.5629550900      0.4422313567      0.0000000000
0.4438921375       208784.4931599752      0.2010000000      13.5211438876      0.4540837846      0.0000000000
0.4553841991       185642.3059331001      0.2030000000      13.4825521409      0.4662190112      0.0000000000
0.4671255092       165147.4105497821      0.2050000000      13.4470339107      0.4786368440      0.0000000000
0.4791143338       146993.9324998435      0.2070000000      13.4144477525      0.4913366970      0.0000000000
0.4913485523       130910.9368716284      0.2090000000      13.3846561580      0.5043175903      0.0000000000
0.5038256620       116658.5860322722      0.2110000000      13.3575255422      0.5175781522      0.0000000000
0.5165427847       104024.7253242144      0.2130000000      13.3329265332      0.5311166224      0.0000000000
0.5294966745        92821.7303746865      0.2150000000      13.3107336050      0.5449308556      0.0000000000
0.5426837254        82883.7505459152      0.2170000000      13.2908251017      0.5590183270      0.0000000000
0.5560999817        74064.2302994757      0.2190000000      13.2730832205      0.5733761383      0.0000000000
0.5697411484        66233.7209592228      0.2210000000      13.2573940212      0.5880010249      0.0000000000
0.5836026029        59277.8808819174      0.2230000000      13.2436473044      0.6028893650      0.0000000000
0.5976794074        53095.7544885581      0.2250000000      13.2317365944      0.6180371882      0.0000000000
0.6119663222        47598.1999900303      0.2270000000      13.2215589873      0.6334401852      0.0000000000
0.6264578201        42706.5287455018      0.2290000000      13.2130153873      0.6490937205      0.0000000000
0.6411481015        38351.2644962750      0.2310000000      13.2060101758      0.6649928430      0.0000000000
0.6560311081        34471.0774248233      0.2330000000      13.2004512073      0.6811322980      0.0000000000
0.6711005413        31011.8175173003      0.2350000000      13.1962498506      0.6975065423      0.0000000000
0.6863498767        27925.6656030005      0.2370000000      13.1933207783      0.7141097565      0.0000000000
0.7017723818        25170.3979822943      0.2390000000      13.1915821438      0.7309358600      0.0000000000
0.7173611327        22708.7067533001      0.2410000000      13.1909551717      0.7479785261      0.0000000000
0.7331090316        20507.6358228289      0.2430000000      13.1913644243      0.7652311967      0.0000000000
0.7490088237        18538.0560862996      0.2450000000      13.1927375197      0.7826870981      0.0000000000
0.7650531158        16774.2125895587      0.2470000000      13.1950051398      0.8003392576      0.0000000000
0.7812343923        15193.3290622249      0.2490000000      13.1981009171      0.8181805183      0.0000000000
0.7975450339        13775.2528649989      0.2510000000      13.2019613827      0.8362035564      0.0000000000
0.8139773344        12502.1456388871      0.2530000000      13.2065259324      0.8544008976      0.0000000000
0.8305235174        11358.2118583515      0.2550000000      13.2117366354      0.8727649322      0.0000000000
0.8471757537        10329.4549913061      0.2570000000      13.2175382680      0.8912879328      0.0000000000
0.8639261772         9403.4705527764      0.2590000000      13.2238782128      0.9099620693      0.0000000000
0.8807669018         8569.2542633745      0.2610000000      13.2307062736      0.9287794262      0.0000000000
0.8976900360         7817.0423803411      0.2630000000      13.2379748382      0.9477320171      0.0000000000
0.9146876996         7138.1654188861      0.2650000000      13.2456384567      0.9668118014      0.0000000000
0.9317520352         6524.9203702648      0.2670000000      13.2536541486      0.9860106971      0.0000000000
0.9488752267         5970.4590930932      0.2690000000      13.2619809441      1.0053205993      0.0000000000
0.9660495102         5468.6899976219      0.2710000000      13.2705801821      1.0247333924      0.0000000000
0.9832671869         5014.1903137070      0.2730000000      13.2794151153      1.0442409641      0.0000000000
1.0005206367         4602.1292419410      0.2750000000      13.2884510500      1.0638352202      0.0000000000
1.0178023281         4228.2017032530      0.2770000000      13.2976551467      1.0835080957      0.0000000000
1.0351048312         3888.5664468865      0.2790000000      13.3069964192      1.1032515696      0.0000000000
1.0524208261         3579.7952689418      0.2810000000      13.3164456429      1.1230576753      0.0000000000
1.0697431180         3298.8254630978      0.2830000000      13.3259753048      1.1429185173      0.0000000000
1.0870646296         3042.9196457599      0.2850000000      13.3355594878      1.1628262640      0.0000000000
1.1043784328         2809.6283105465      0.2870000000      13.3451738352      1.1827731849      0.0000000000
1.1216777410         2596.7588746297      0.2890000000      13.3547954905      1.2027516418      0.0000000000
1.1389559200         2402.3468202444      0.2910000000      13.3644030959      1.2227541040      0.0000000000
1.1562064934         2224.6307726527      0.2930000000      13.3739765237      1.2427731544      0.0000000000
1.1734231496         2062.0299812050      0.2950000000      13.3834971276      1.2628015004      0.0000000000
1.1905997451         1913.1251412705      0.2970000000      13.3929473845      1.2828319781      0.0000000000
1.2077303103         1776.6405473422      0.2990000000      13.4023110149      1.3028575617      0.0000000000
1.2248090518         1651.4290279082      0.3010000000      13.4115729147      1.3228713679      0.0000000000
1.2418303566         1536.4577187130      0.3030000000      13.4207190439      1.3428666622      0.0000000000
1.2587887942         1430.7963364222      0.3050000000      13.4297363828      1.3628368639      0.0000000000
1.2756791183         1333.6062922076      0.3070000000      13.4386129548      1.3827755503      0.0000000000
1.2924962688         1244.1307225368      0.3090000000      13.4473376612      1.4026764608      0.0000000000
1.3092353726         1161.6864665639      0.3110000000      13.4559003692      1.4225335004      0.0000000000
1.3258917437         1085.6560932883      0.3130000000      13.4642917621      1.4423407425      0.0000000000
1.3424608809         1015.4811645020      0.3150000000      13.4725033154      1.4620924275      0.0000000000
1.3589384789          950.6562465780      0.3170000000      13.4805273172      1.4817829797      0.0000000000
1.3753204098          890.7235759176      0.3190000000      13.4883567468      1.5014069867      0.0000000000
1.3916027339          835.2681715533      0.3210000000      13.4959853082      1.5209592153      0.0000000000
1.4077816950          783.9135448753      0.3230000000      13.5034073343      1.5404346081      0.0000000000
1.4238537187          736.3178979832      0.3250000000      13.5106177671      1.5598282840      0.0000000000
1.4398154105          692.1706064916      0.3270000000      13.5176121654      1.5791355386      0.0000000000
1.4556635532          651.1892707403      0.3290000000      13.5243865968      1.5983518432      0.0000000000
1.4713951043          613.1168962823      0.3310000000      13.5309376891      1.6174728441      0.0000000000
1.4870071931          577.7194009491      0.3330000000      13.5372625495      1.6364943619      0.0000000000
1.5024971174          544.7834698030      0.3350000000      13.5433587333      1.6554123899      0.0000000000
1.5178623409          514.1145227487      0.3370000000      13.5492242323      1.6742230927      0.0000000000
1.5331004890          485.5348982649      0.3390000000      13.5548574508      1.6929228044      0.0000000000
1.5482093459          458.8824186044      0.3410000000      13.5602571781      1.7115080262      0.0000000000
1.5631868502          434.0087233440      0.3430000000      13.5654225725      1.7299754245      0.0000000000
1.5780310918          410.7781635161      0.3450000000      13.5703531020      1.7483218284      0.0000000000
1.5927403077          389.0664831348      0.3470000000      13.5750485607      1.7665442271      0.0000000000
1.6073128778          368.7598969262      0.3490000000      13.5795090420      1.7846397669      0.0000000000
1.6217473248          349.7540358022      0.3510000000      13.5837349200      1.8026057532      0.0000000000
1.6360422960          331.9532017264      0.3530000000      13.5877267953      1.8204396293      0.0000000000
1.6501965800          315.2694576067      0.3550000000      13.5914855268      1.8381390000      0.0000000000
1.6642090886          299.6220700438      0.3570000000      13.5950121918      1.8557016106      0.0000000000
1.6780788567          284.9367606109      0.3590000000      13.5983080837      1.8731253485      0.0000000000
1.6918050373          271.1452032926      0.3610000000      13.6013746464      1.8904082390      0.0000000000
1.7053868981          258.1845099304      0.3630000000      13.6042135371      1.9075484425      0.0000000000
1.7188238174          245.9967086737      0.3650000000      13.6068265608      1.9245442509      0.0000000000
1.7321152795          234.5283543518      0.3670000000      13.6092156602      1.9413940840      0.0000000000
1.7452608711          223.7301535484      0.3690000000      13.6113829336      1.9580964860      0.0000000000
1.7582602774          213.5565853606      0.3710000000      13.6133305738      1.9746501221      0.0000000000
1.7711132778          203.9655947447      0.3730000000      13.6150609082      1.9910537747      0.0000000000
1.7838197425          194.9183170445      0.3750000000      13.6165763752      2.0073063402      0.0000000000
1.7963796284          186.3787765948      0.3770000000      13.6178794718      2.0234068251      0.0000000000
1.8087929756          178.3137077206      0.3790000000      13.6189728083      2.0393543429      0.0000000000
1.8210599033          170.6922654397      0.3810000000      13.6198590691      2.0551481100      0.0000000000
1.8331806068          163.4858796997      0.3830000000      13.6205409709      2.0707874431      0.0000000000
1.8451553539          156.6680558363      0.3850000000      13.6210213266      2.0862717550      0.0000000000
1.8569844809          150.2141953604      0.3870000000      13.6213029933      2.1016005516      0.0000000000
1.8686683900          144.1014705888      0.3890000000      13.6213888557      2.1167734285      0.0000000000
1.8802075458          138.3086711838      0.3910000000      13.6212818523      2.1317900677      0.0000000000
1.8916024719          132.8160614335      0.3930000000      13.6209849383      2.1466502344      0.0000000000
1.9028537481          127.6053072522      0.3950000000      13.6205011135      2.1613537738      0.0000000000
1.9139620073          122.6593318511      0.3970000000      13.6198333861      2.1759006077      0.0000000000
1.9249279328          117.9622289288      0.3990000000      13.6189847940      2.1902907320      0.0000000000
1.9357522551          113.4991808625      0.4010000000      13.6179583565      2.2045242133      0.0000000000
1.9464357494          109.2563720241      0.4030000000      13.6167571370      2.2186011859      0.0000000000
1.9569792334          105.2209137551      0.4050000000      13.6153841798      2.2325218494      0.0000000000
1.9673835637          101.3807712976      0.4070000000      13.6138425404      2.2462864652      0.0000000000
1.9776496345           97.7247094387      0.4090000000      13.6121352605      2.2598953544      0.0000000000
1.9877783743           94.2422257413      0.4110000000      13.6102653800      2.2733488947      0.0000000000
1.9977707442           90.9235105386      0.4130000000      13.6082359247      2.2866475178      0.0000000000
2.0076277356           87.7593732050      0.4150000000      13.6060499124      2.2997917076      0.0000000000
2.0173503677           84.7412169667      0.4170000000      13.6037103397      2.3127819966      0.0000000000
2.0269396858           81.8609972528      0.4190000000      13.6012201891      2.3256189642      0.0000000000
2.0363967595           79.1111682556      0.4210000000      13.5985824380      2.3383032345      0.0000000000
2.0457226802           76.4846610420      0.4230000000      13.5958000078      2.3508354733      0.0000000000
2.0549185599           73.9748462121      0.4250000000      13.5928758231      2.3632163867      0.0000000000
2.0639855292           71.5755014725      0.4270000000      13.5898127778      2.3754467187      0.0000000000
2.0729247356           69.2807840030      0.4290000000      13.5866137351      2.3875272490      0.0000000000
2.0817373421           67.0852064023      0.4310000000      13.5832815280      2.3994587913      0.0000000000
2.0904245251           64.9836134846      0.4330000000      13.5798189681      2.4112421908      0.0000000000
2.0989874739           62.9711564963      0.4350000000      13.5762288321      2.4228783230      0.0000000000
2.1074273884           61.0432732381      0.4370000000      13.5725138564      2.4343680918      0.0000000000
2.1157454783           59.1956739494      0.4390000000      13.5686767636      2.4457124274      0.0000000000
2.1239429616           57.4243158491      0.4410000000      13.5647202280      2.4569122847      0.0000000000
2.1320210635           55.7253945209      0.4430000000      13.5606469006      2.4679686422      0.0000000000
2.1399810152           54.0953183949      0.4450000000      13.5564593770      2.4788824996      0.0000000000
2.1478240527           52.5307105825      0.4470000000      13.5521602503      2.4896548770      0.0000000000
2.1555514158           51.0283756314      0.4490000000      13.5477520424      2.5002868132      0.0000000000
2.1631643472           49.5853076219      0.4510000000      13.5432372710      2.5107793642      0.0000000000
2.1706640918           48.1986600650      0.4530000000      13.5386184005      2.5211336024      0.0000000000
2.1780518950           46.8657502631      0.4550000000      13.5338978621      2.5313506142      0.0000000000
2.1853290025           45.5840417005      0.4570000000      13.5290780473      2.5414314998      0.0000000000
2.1924966596           44.3511355116      0.4590000000      13.5241613220      2.5513773721      0.0000000000
2.1995561100           43.1647650213      0.4610000000      13.5191499964      2.5611893546      0.0000000000
2.2065085950           42.0227845169      0.4630000000      13.5140463623      2.5708685805      0.0000000000
2.2133553536           40.9231637897      0.4650000000      13.5088526702      2.5804161930      0.0000000000
2.2200976211           39.8639788283      0.4670000000      13.5035711195      2.5898333428      0.0000000000
2.2267366285           38.8434098491      0.4690000000      13.4982038940      2.5991211873      0.0000000000
2.2332736024           37.8597299976      0.4710000000      13.4927531325      2.6082808904      0.0000000000
