# M(M_sol)                 Lambda          n_Bc(fm^-3)         R(km)            m_B(M_sol)        m_Bquar/M_B
0.1542449983     10284303.2651278768      0.1680000000      16.6341842985      0.1545072204      0.0000000000
0.1614721250      8163377.0803073132      0.1700000000      16.0474855801      0.1618470485      0.0000000000
0.1690591076      6508409.5015720902      0.1720000000      15.5388634565      0.1695618218      0.0000000000
0.1770037396      5211371.1754609430      0.1740000000      15.0965576855      0.1776505643      0.0000000000
0.1853037018      4190535.4875256629      0.1760000000      14.7108867041      0.1861122223      0.0000000000
0.1939566712      3383743.6677172980      0.1780000000      14.3738347746      0.1949457724      0.0000000000
0.2029602768      2743508.7596325986      0.1800000000      14.0787313282      0.2041501762      0.0000000000
0.2123118816      2233388.3268777872      0.1820000000      13.8199764163      0.2137241541      0.0000000000
0.2220087656      1825318.3465361728      0.1840000000      13.5928601421      0.2236663710      0.0000000000
0.2320479877      1497598.6924968783      0.1860000000      13.3933921462      0.2339752916      0.0000000000
0.2424263199      1233385.7256355344      0.1880000000      13.2181701866      0.2446491108      0.0000000000
0.2531403901      1019562.2276240137      0.1900000000      13.0642935834      0.2556858969      0.0000000000
0.2641864657       845868.8900818331      0.1920000000      12.9292614390      0.2670833662      0.0000000000
0.2755605651       704255.7573223506      0.1940000000      12.8109178857      0.2788389934      0.0000000000
0.2872584080       588382.0934126341      0.1960000000      12.7073938179      0.2909499576      0.0000000000
0.2992754055       493235.2159663070      0.1980000000      12.6170616068      0.3034131278      0.0000000000
0.3116066748       414838.4749777387      0.2000000000      12.5385004135      0.3162250743      0.0000000000
0.3242470114       350025.2997256551      0.2020000000      12.4704629880      0.3293820350      0.0000000000
0.3371908883       296265.5741351189      0.2040000000      12.4118506005      0.3428799112      0.0000000000
0.3504325037       251530.9359586814      0.2060000000      12.3616957070      0.3567143123      0.0000000000
0.3639657294       214189.3050183234      0.2080000000      12.3191391147      0.3708804978      0.0000000000
0.3777841488       182923.3100802116      0.2100000000      12.2834180231      0.3853734122      0.0000000000
0.3918810624       156666.0806690327      0.2120000000      12.2538530151      0.4001876864      0.0000000000
0.4062494933       134550.7527908532      0.2140000000      12.2298367788      0.4153176386      0.0000000000
0.4208821742       115870.7300506285      0.2160000000      12.2108232821      0.4307572568      0.0000000000
0.4357716372       100048.5301551276      0.2180000000      12.1963264030      0.4465002881      0.0000000000
0.4509101476        86610.4734913703      0.2200000000      12.1859062868      0.4625401650      0.0000000000
0.4662897437        75166.9518349525      0.2220000000      12.1791658075      0.4788700426      0.0000000000
0.4819022660        65396.6444421027      0.2240000000      12.1757469391      0.4954828260      0.0000000000
0.4977393448        57033.6956919575      0.2260000000      12.1753235925      0.5123711520      0.0000000000
0.5137924644        49857.6753792337      0.2280000000      12.1776025828      0.5295274540      0.0000000000
0.5300529334        43685.1933300027      0.2300000000      12.1823158087      0.5469439270      0.0000000000
0.5465119402        38363.3393288197      0.2320000000      12.1892204169      0.5646125822      0.0000000000
0.5631605248        33764.2650425298      0.2340000000      12.1980943958      0.5825252142      0.0000000000
0.5799896375        29780.7874207534      0.2360000000      12.2087347348      0.6006734600      0.0000000000
0.5969901512        26322.8753726411      0.2380000000      12.2209573114      0.6190488097      0.0000000000
0.6141528439        23314.6563769244      0.2400000000      12.2345912939      0.6376425845      0.0000000000
0.6314684725        20692.1061730229      0.2420000000      12.2494828193      0.6564460137      0.0000000000
0.6489277481        18401.0302059209      0.2440000000      12.2654899404      0.6754502061      0.0000000000
0.6665213549        16395.4505393891      0.2460000000      12.2824814481      0.6946461675      0.0000000000
0.6842400102        14636.3110036550      0.2480000000      12.3003398957      0.7140248654      0.0000000000
0.7020743926        13090.2963490728      0.2500000000      12.3189525475      0.7335771471      0.0000000000
0.7200152617        11728.9978411737      0.2520000000      12.3382200436      0.7532938707      0.0000000000
0.7380534175        10528.1081536877      0.2540000000      12.3580507082      0.7731658595      0.0000000000
0.7561796812         9466.7646315713      0.2560000000      12.3783564851      0.7931838782      0.0000000000
0.7743850076         8527.0774217675      0.2580000000      12.3990615824      0.8133387585      0.0000000000
0.7926603997         7693.6291335013      0.2600000000      12.4200927738      0.8336213019      0.0000000000
0.8109969716         6953.1297361102      0.2620000000      12.4413835153      0.8540223513      0.0000000000
0.8293859526         6294.0965684197      0.2640000000      12.4628726897      0.8745327935      0.0000000000
0.8478187088         5706.5968485831      0.2660000000      12.4845054125      0.8951435858      0.0000000000
0.8662867129         5182.0060555759      0.2680000000      12.5062284975      0.9158457201      0.0000000000
0.8847816081         4712.8412678025      0.2700000000      12.5279954831      0.9366302973      0.0000000000
0.9032951849         4292.5884538520      0.2720000000      12.5497630933      0.9574885009      0.0000000000
0.9218193894         3915.5675831470      0.2740000000      12.5714910558      0.9784116080      0.0000000000
0.9403463407         3576.8195936512      0.2760000000      12.5931426204      0.9993910096      0.0000000000
0.9588683367         3272.0080836571      0.2780000000      12.6146843945      1.0204182188      0.0000000000
0.9773778601         2997.3344091268      0.2800000000      12.6360859593      1.0414848794      0.0000000000
0.9958675759         2749.4641400646      0.2820000000      12.6573189091      1.0625827644      0.0000000000
1.0143303541         2525.4692229597      0.2840000000      12.6783584425      1.0837038042      0.0000000000
1.0327592508         2322.7703796473      0.2860000000      12.6991808817      1.1048400668      0.0000000000
1.0511475297         2139.0949900684      0.2880000000      12.7197652472      1.1259837838      0.0000000000
1.0694886541         1972.4362745956      0.2900000000      12.7400920767      1.1471273449      0.0000000000
1.0877762971         1821.0204749645      0.2920000000      12.7601440005      1.1682633108      0.0000000000
1.1060043453         1683.2775733652      0.2940000000      12.7799058527      1.1893844202      0.0000000000
1.1241668931         1557.8155579803      0.2960000000      12.7993638180      1.2104835863      0.0000000000
1.1422582428         1443.3981591905      0.2980000000      12.8185052715      1.2315538984      0.0000000000
1.1602729051         1338.9260346171      0.3000000000      12.8373186361      1.2525886260      0.0000000000
1.1782056063         1243.4210189478      0.3020000000      12.8557940910      1.2735812297      0.0000000000
1.1960512871         1156.0114857887      0.3040000000      12.8739233849      1.2945253620      0.0000000000
1.2138050919         1075.9190858599      0.3060000000      12.8916988686      1.3154148584      0.0000000000
1.2314623736         1002.4481558342      0.3080000000      12.9091138723      1.3362437449      0.0000000000
1.2490186956          934.9766002239      0.3100000000      12.9261631150      1.3570062437      0.0000000000
1.2664698178          872.9465395785      0.3120000000      12.9428414121      1.3776967598      0.0000000000
1.2838117107          815.8581481085      0.3140000000      12.9591453253      1.3983098993      0.0000000000
1.3010405395          763.2623112490      0.3160000000      12.9750717249      1.4188404548      0.0000000000
1.3181526642          714.7551019150      0.3180000000      12.9906179510      1.4392834071      0.0000000000
1.3351446428          669.9732540156      0.3200000000      13.0057826279      1.4596339323      0.0000000000
1.3520132188          628.5891662626      0.3220000000      13.0205644882      1.4798873897      0.0000000000
1.3687553237          590.3073969111      0.3240000000      13.0349630491      1.5000393274      0.0000000000
1.3853680712          554.8611263262      0.3260000000      13.0489783182      1.5200854778      0.0000000000
1.4018487522          522.0090403706      0.3280000000      13.0626106373      1.5400217544      0.0000000000
1.4181948356          491.5328894363      0.3300000000      13.0758612300      1.5598442552      0.0000000000
1.4344039531          463.2346527921      0.3320000000      13.0887308325      1.5795492474      0.0000000000
1.4504739125          436.9351054740      0.3340000000      13.1012217762      1.5991331848      0.0000000000
1.4664026747          412.4712049238      0.3360000000      13.1133356836      1.6185926837      0.0000000000
1.4821883629          389.6949898264      0.3380000000      13.1250751510      1.6379245355      0.0000000000
1.4978292515          368.4717811559      0.3400000000      13.1364427942      1.6571256958      0.0000000000
1.5133237633          348.6789562803      0.3420000000      13.1474415513      1.6761932831      0.0000000000
1.5286704650          330.2047466397      0.3440000000      13.1580746019      1.6951245759      0.0000000000
1.5438680629          312.9472089786      0.3460000000      13.1683453674      1.7139170086      0.0000000000
1.5589153957          296.8131616267      0.3480000000      13.1782571313      1.7325681657      0.0000000000
1.5738114385          281.7176324068      0.3500000000      13.1878141741      1.7510757882      0.0000000000
1.5885552847          267.5826752620      0.3520000000      13.1970199491      1.7694377529      0.0000000000
1.6031461550          254.3370703688      0.3540000000      13.2058788195      1.7876520861      0.0000000000
1.6175833858          241.9155369861      0.3560000000      13.2143950976      1.8057169504      0.0000000000
1.6318664248          230.2581329579      0.3580000000      13.2225730013      1.8236306410      0.0000000000
1.6459948260          219.3098242397      0.3600000000      13.2304166482      1.8413915813      0.0000000000
1.6599682543          209.0201729244      0.3620000000      13.2379310678      1.8589983300      0.0000000000
1.6737864665          199.3426514901      0.3640000000      13.2451203508      1.8764495588      0.0000000000
1.6874493235          190.2345958049      0.3660000000      13.2519897233      1.8937440699      0.0000000000
1.7009567694          181.6565473529      0.3680000000      13.2585433147      1.9108807697      0.0000000000
1.7143088434          173.5722941665      0.3700000000      13.2647863059      1.9278586864      0.0000000000
1.7275056645          165.9483298676      0.3720000000      13.2707233237      1.9446769509      0.0000000000
1.7405474344          158.7537903821      0.3740000000      13.2763593620      1.9613348025      0.0000000000
1.7534344248          151.9600352988      0.3760000000      13.2816985480      1.9778315732      0.0000000000
1.7661669929          145.5408192158      0.3780000000      13.2867467652      1.9941667094      0.0000000000
1.7787455534          139.4716428077      0.3800000000      13.2915082707      2.0103397362      0.0000000000
1.7911705921          133.7299264741      0.3820000000      13.2959880494      2.0263502762      0.0000000000
1.8034426570          128.2947303502      0.3840000000      13.3001909714      2.0421980391      0.0000000000
1.8155623545          123.1466339299      0.3860000000      13.3041218274      2.0578828174      0.0000000000
1.8275303484          118.2676381719      0.3880000000      13.3077855336      2.0734044864      0.0000000000
1.8393473538          113.6409959984      0.3900000000      13.3111867019      2.0887629962      0.0000000000
1.8510141375          109.2511797166      0.3920000000      13.3143301743      2.1039583739      0.0000000000
1.8625315136          105.0837516442      0.3940000000      13.3172207456      2.1189907181      0.0000000000
1.8739003396          101.1252611558      0.3960000000      13.3198630033      2.1338601941      0.0000000000
1.8851215175           97.3632235670      0.3980000000      13.3222618699      2.1485670370      0.0000000000
1.8961959857           93.7859774455      0.4000000000      13.3244218603      2.1631115402      0.0000000000
1.9071247204           90.3826606747      0.4020000000      13.3263475470      2.1774940587      0.0000000000
1.9179087313           87.1431360454      0.4040000000      13.3280433570      2.1917150039      0.0000000000
1.9285490633           84.0579770801      0.4060000000      13.3295141231      2.2057748457      0.0000000000
1.9390467863           81.1183331586      0.4080000000      13.3307639336      2.2196740999      0.0000000000
1.9494030007           78.3159574103      0.4100000000      13.3317972075      2.2334133358      0.0000000000
1.9596188341           75.6431682606      0.4120000000      13.3326186309      2.2469931718      0.0000000000
1.9696954336           73.0927286348      0.4140000000      13.3332321713      2.2604142660      0.0000000000
1.9796339718           70.6579086814      0.4160000000      13.3336423280      2.2736773238      0.0000000000
1.9894356383           68.3323752750      0.4180000000      13.3338530946      2.2867830873      0.0000000000
1.9991016415           66.1102056811      0.4200000000      13.3338685644      2.2997323378      0.0000000000
2.0086332087           63.9858612295      0.4220000000      13.3336930907      2.3125258960      0.0000000000
2.0180315774           61.9541152810      0.4240000000      13.3333303372      2.3251646104      0.0000000000
2.0272980046           60.0101124507      0.4260000000      13.3327848241      2.3376493703      0.0000000000
2.0364337505           58.1492192247      0.4280000000      13.3320596781      2.3499810836      0.0000000000
2.0454400942           56.3671534845      0.4300000000      13.3311593030      2.3621606979      0.0000000000
2.0543183171           54.6598431027      0.4320000000      13.3300870678      2.3741891790      0.0000000000
2.0630697147           53.0234978690      0.4340000000      13.3288471539      2.3860675258      0.0000000000
2.0716955839           51.4545157852      0.4360000000      13.3274429444      2.3977967538      0.0000000000
2.0801972297           49.9495295413      0.4380000000      13.3258782180      2.4093779042      0.0000000000
2.0885759586           48.5053452978      0.4400000000      13.3241562181      2.4208120343      0.0000000000
2.0968330842           47.1189800557      0.4420000000      13.3222807597      2.4321002261      0.0000000000
2.1049699195           45.7876070416      0.4440000000      13.3202552387      2.4432435751      0.0000000000
2.1129877772           44.5085407431      0.4460000000      13.3180825361      2.4542431902      0.0000000000
2.1208879766           43.2792978467      0.4480000000      13.3157667328      2.4651002043      0.0000000000
2.1286718292           42.0974808637      0.4500000000      13.3133105021      2.4758157536      0.0000000000
2.1363406488           40.9608509011      0.4520000000      13.3107171338      2.4863909915      0.0000000000
2.1438957484           39.8673009225      0.4540000000      13.3079900713      2.4968270845      0.0000000000
2.1513384348           38.8148154585      0.4560000000      13.3051320813      2.5071252044      0.0000000000
2.1586700147           37.8015116764      0.4580000000      13.3021465226      2.5172865366      0.0000000000
2.1658917866           36.8255834164      0.4600000000      13.2990359905      2.5273122692      0.0000000000
2.1730050468           35.8853348018      0.4620000000      13.2958034071      2.5372036004      0.0000000000
2.1800110888           34.9791757073      0.4640000000      13.2924521553      2.5469617385      0.0000000000
2.1869111936           34.1055619068      0.4660000000      13.2889843737      2.5565878872      0.0000000000
2.1937066420           33.2630637147      0.4680000000      13.2854032284      2.5660832635      0.0000000000
2.2003987047           32.4503088010      0.4700000000      13.2817112876      2.5754490833      0.0000000000
2.2069886465           31.6660018466      0.4720000000      13.2779112760      2.5846865670      0.0000000000
2.2134777236           30.9089097716      0.4740000000      13.2740057375      2.5937969360      0.0000000000
2.2198671850           30.1778653515      0.4760000000      13.2699972954      2.6027814140      0.0000000000
2.2261582700           29.4717556607      0.4780000000      13.2658883167      2.6116412237      0.0000000000
2.2323522105           28.7895289533      0.4800000000      13.2616814043      2.6203775896      0.0000000000
2.2384502284           28.1301815789      0.4820000000      13.2573788598      2.6289917341      0.0000000000
2.2444535366           27.4927619151      0.4840000000      13.2529831048      2.6374848794      0.0000000000
2.2503633386           26.8763637470      0.4860000000      13.2484964523      2.6458582455      0.0000000000
2.2561808273           26.2801241434      0.4880000000      13.2439211342      2.6541130498      0.0000000000
2.2619071860           25.7032228740      0.4900000000      13.2392593784      2.6622505071      0.0000000000
2.2675435881           25.1448798244      0.4920000000      13.2345134240      2.6702718296      0.0000000000
2.2730911954           24.6043486333      0.4940000000      13.2296852892      2.6781782242      0.0000000000
2.2785511601           24.0809224313      0.4960000000      13.2247771626      2.6859708953      0.0000000000
2.2839246233           23.5739259525      0.4980000000      13.2197911124      2.6936510421      0.0000000000
2.2892127144           23.0827120066      0.5000000000      13.2147289982      2.7012198576      0.0000000000
2.2944165530           22.6066686345      0.5020000000      13.2095929167      2.7086785318      0.0000000000
2.2995372467           22.1452087937      0.5040000000      13.2043847317      2.7160282472      0.0000000000
2.3045758931           21.6977762512      0.5060000000      13.1991064901      2.7232701827      0.0000000000
2.3095335763           21.2638328864      0.5080000000      13.1937598452      2.7304055077      0.0000000000
2.3144113702           20.8428686369      0.5100000000      13.1883466082      2.7374353865      0.0000000000
2.3192103383           20.4344002278      0.5120000000      13.1828687279      2.7443609783      0.0000000000
2.3239315312           20.0379594982      0.5140000000      13.1773278362      2.7511834330      0.0000000000
2.3285759884           19.6531027499      0.5160000000      13.1717256962      2.7579038944      0.0000000000
2.3331447368           19.2794004332      0.5180000000      13.1660637420      2.7645234966      0.0000000000
2.3376387946           18.9164519298      0.5200000000      13.1603439724      2.7710433706      0.0000000000
2.3420591647           18.5638605643      0.5220000000      13.1545675589      2.7774646338      0.0000000000
2.3464068414           18.2212581243      0.5240000000      13.1487363247      2.7837883999      0.0000000000
2.3506828078           17.8882920572      0.5260000000      13.1428520377      2.7900157754      0.0000000000
