# M(M_sol)                 Lambda          n_Bc(fm^-3)         R(km)            m_B(M_sol)        m_Bquar/M_B
0.1524146600     15706302.6234586183      0.1550000000      18.2368815593      0.1525978599      0.0000000000
0.1573307356     13291340.8150985911      0.1570000000      17.7049377708      0.1575827357      0.0000000000
0.1624089044     11278298.7783565316      0.1590000000      17.2263839773      0.1627361840      0.0000000000
0.1676458803      9595601.1920358371      0.1610000000      16.7948424824      0.1680552456      0.0000000000
0.1730383477      8185275.4164327374      0.1630000000      16.4048246816      0.1735369298      0.0000000000
0.1785831053      7000177.7697832482      0.1650000000      16.0516017484      0.1791783606      0.0000000000
0.1842769698      6001811.9245109856      0.1670000000      15.7310743613      0.1849766786      0.0000000000
0.1901168278      5158666.0629203068      0.1690000000      15.4396882186      0.1909290926      0.0000000000
0.1960995870      4444860.3041078178      0.1710000000      15.1743440700      0.1970328305      0.0000000000
0.2022221425      3839085.9392534732      0.1730000000      14.9323279415      0.2032851031      0.0000000000
0.2084814740      3323764.0526445447      0.1750000000      14.7112677471      0.2096832045      0.0000000000
0.2148745284      2884347.1258151368      0.1770000000      14.5090695395      0.2162243902      0.0000000000
0.2213983614      2508781.4018334611      0.1790000000      14.3238950238      0.2229060228      0.0000000000
0.2280500081      2187046.7162554208      0.1810000000      14.1541150456      0.2297254390      0.0000000000
0.2348264612      1910797.9848264819      0.1830000000      13.9982801959      0.2366799259      0.0000000000
0.2417248274      1673073.5138973284      0.1850000000      13.8551102110      0.2437668823      0.0000000000
0.2487421120      1468046.5525107433      0.1870000000      13.7234545176      0.2509835964      0.0000000000
0.2558754593      1290836.8912703302      0.1890000000      13.6022958234      0.2583274929      0.0000000000
0.2631219184      1137341.4664207373      0.1910000000      13.4907146960      0.2657958915      0.0000000000
0.2704785994      1004107.5642902377      0.1930000000      13.3878901576      0.2733861681      0.0000000000
0.2779425629       888220.8659094101      0.1950000000      13.2930792761      0.2810956392      0.0000000000
0.2855109667       787219.3708556821      0.1970000000      13.2056198699      0.2889217144      0.0000000000
0.2931808994       699015.4667495504      0.1990000000      13.1249078182      0.2968617235      0.0000000000
0.3009494816       621837.3052378643      0.2010000000      13.0503986405      0.3049130208      0.0000000000
0.3088137882       554176.6365839137      0.2030000000      12.9815943485      0.3130729046      0.0000000000
0.3167710188       494749.4833775659      0.2050000000      12.9180526302      0.3213387936      0.0000000000
0.3248182621       442457.3273150270      0.2070000000      12.8593615649      0.3297079821      0.0000000000
0.3329526399       396360.3661960207      0.2090000000      12.8051477240      0.3381777887      0.0000000000
0.3411713232       355653.1705024051      0.2110000000      12.7550739147      0.3467455742      0.0000000000
0.3494714514       319643.1847796570      0.2130000000      12.7088286504      0.3554086559      0.0000000000
0.3578501805       287734.3517953081      0.2150000000      12.6661274530      0.3641643582      0.0000000000
0.3663046856       259412.6994001988      0.2170000000      12.6267103421      0.3730100152      0.0000000000
0.3748321232       234233.8775314821      0.2190000000      12.5903362742      0.3819429306      0.0000000000
0.3834296942       211813.5322490768      0.2210000000      12.5567864012      0.3909604436      0.0000000000
0.3920945959       191818.2347348314      0.2230000000      12.5258579740      0.4000598790      0.0000000000
0.4008240343       173958.3638122272      0.2250000000      12.4973638321      0.4092385591      0.0000000000
0.4096152338       157981.9283643537      0.2270000000      12.4711316794      0.4184938140      0.0000000000
0.4184654401       143669.3058796072      0.2290000000      12.4470026300      0.4278229852      0.0000000000
0.4273719004       130828.7224295692      0.2310000000      12.4248288483      0.4372234037      0.0000000000
0.4363318812       119292.4792219613      0.2330000000      12.4044733380      0.4466924090      0.0000000000
0.4453427007       108913.8249243106      0.2350000000      12.3858119652      0.4562273838      0.0000000000
0.4544016454        99563.8437274733      0.2370000000      12.3687254108      0.4658256649      0.0000000000
0.4635060469        91129.3621650031      0.2390000000      12.3531047245      0.4754846245      0.0000000000
0.4726532890        83510.8929782922      0.2410000000      12.3388511892      0.4852016790      0.0000000000
0.4818407203        76620.5927155904      0.2430000000      12.3258681693      0.4949741944      0.0000000000
0.4910657623        70381.0918302625      0.2450000000      12.3140697265      0.5047996022      0.0000000000
0.5003258176        64723.8930373498      0.2470000000      12.3033719359      0.5146753014      0.0000000000
0.5096183691        59588.5129610351      0.2490000000      12.2937011022      0.5245987647      0.0000000000
0.5189408916        54921.2702743455      0.2510000000      12.2849854734      0.5345674439      0.0000000000
0.5282909017        50674.5573151029      0.2530000000      12.2771591260      0.5445788230      0.0000000000
0.5376659214        46806.0270267979      0.2550000000      12.2701582592      0.5546303792      0.0000000000
0.5470635657        43278.1058868551      0.2570000000      12.2639281205      0.5647196783      0.0000000000
0.5564814093        40057.2283702697      0.2590000000      12.2584127699      0.5748442297      0.0000000000
0.5659171010        37113.4929660673      0.2610000000      12.2535618895      0.5850016108      0.0000000000
0.5753683253        34420.2090274130      0.2630000000      12.2493290303      0.5951894256      0.0000000000
0.5848327763        31953.4751000376      0.2650000000      12.2456684722      0.6054052761      0.0000000000
0.5943081966        29691.9150134916      0.2670000000      12.2425383980      0.6156468047      0.0000000000
0.6037923871        27616.3964099945      0.2690000000      12.2399016412      0.6259117061      0.0000000000
0.6132831569        25709.7171732401      0.2710000000      12.2377207152      0.6361976711      0.0000000000
0.6227783525        23956.4253423757      0.2730000000      12.2359604249      0.6465024203      0.0000000000
0.6322759016        22342.6735141273      0.2750000000      12.2345916162      0.6568237510      0.0000000000
0.6417736885        20855.9102156136      0.2770000000      12.2335794214      0.6671594014      0.0000000000
0.6512697388        19484.9215822712      0.2790000000      12.2329002634      0.6775072538      0.0000000000
0.6607620329        18219.5132793877      0.2810000000      12.2325243720      0.6878651288      0.0000000000
0.6702486396        17050.5211911762      0.2830000000      12.2324280533      0.6982309339      0.0000000000
0.6797276610        15969.6524163014      0.2850000000      12.2325883254      0.7086026022      0.0000000000
0.6891972112        14969.3832876470      0.2870000000      12.2329809833      0.7189780688      0.0000000000
0.6986555041        14042.9375284150      0.2890000000      12.2335885517      0.7293553693      0.0000000000
0.7081007236        13184.1256073047      0.2910000000      12.2343880692      0.7397324949      0.0000000000
0.7175311622        12387.3694752855      0.2930000000      12.2353639603      0.7501075477      0.0000000000
0.7269451237        11647.5853523730      0.2950000000      12.2364989147      0.7604786319      0.0000000000
0.7363409336        10960.1388638638      0.2970000000      12.2377746614      0.7708438661      0.0000000000
0.7457170103        10320.8392361711      0.2990000000      12.2391787221      0.7812014630      0.0000000000
0.7550717605         9725.8421859483      0.3010000000      12.2406943495      0.7915496126      0.0000000000
0.7644036739         9171.6613890767      0.3030000000      12.2423094962      0.8018865882      0.0000000000
0.7737112717         8655.1121110057      0.3050000000      12.2440120284      0.8122106899      0.0000000000
0.7829931078         8173.2802123434      0.3070000000      12.2457895480      0.8225202453      0.0000000000
0.7922477750         7723.5024907329      0.3090000000      12.2476301110      0.8328136172      0.0000000000
0.8014739366         7303.3525620584      0.3110000000      12.2495252111      0.8430892396      0.0000000000
0.8106702601         6910.5953003101      0.3130000000      12.2514633194      0.8533455426      0.0000000000
0.8198354827         6543.1932778465      0.3150000000      12.2534363905      0.8635810276      0.0000000000
0.8289683699         6199.2732962132      0.3170000000      12.2554355282      0.8737942198      0.0000000000
0.8380677324         5877.1174303787      0.3190000000      12.2574529061      0.8839836883      0.0000000000
0.8471324097         5575.1454100142      0.3210000000      12.2594800306      0.8941480278      0.0000000000
0.8561613028         5291.9102475445      0.3230000000      12.2615110365      0.9042858955      0.0000000000
0.8651533379         5026.0769925605      0.3250000000      12.2635390313      0.9143959708      0.0000000000
0.8741074784         4776.4163977664      0.3270000000      12.2655573733      0.9244769686      0.0000000000
0.8830227360         4541.7985669166      0.3290000000      12.2675607598      0.9345276527      0.0000000000
0.8918981571         4321.1810138759      0.3310000000      12.2695439517      0.9445468205      0.0000000000
0.9007328171         4113.6002183472      0.3330000000      12.2715011153      0.9545332969      0.0000000000
0.9095258429         3918.1697161802      0.3350000000      12.2734282537      0.9644859595      0.0000000000
0.9182763904         3734.0689536289      0.3370000000      12.2753208695      0.9744037143      0.0000000000
0.9269836538         3560.5398345071      0.3390000000      12.2771749330      0.9842855059      0.0000000000
0.9356468603         3396.8810102316      0.3410000000      12.2789866553      0.9941303120      0.0000000000
0.9442652736         3242.4432051506      0.3430000000      12.2807524335      1.0039371475      0.0000000000
0.9528381937         3096.6254430129      0.3450000000      12.2824692143      1.0137050647      0.0000000000
0.9613649511         2958.8702936743      0.3470000000      12.2841338080      1.0234331466      0.0000000000
0.9698449133         2828.6611990871      0.3490000000      12.2857436575      1.0331205150      0.0000000000
0.9782774770         2705.5185079351      0.3510000000      12.2872960967      1.0427663218      0.0000000000
0.9866620727         2588.9970787599      0.3530000000      12.2887888507      1.0523697541      0.0000000000
0.9949981619         2478.6830790782      0.3550000000      12.2902197926      1.0619300316      0.0000000000
1.0032852352         2374.1919385623      0.3570000000      12.2915868284      1.0714464045      0.0000000000
1.0115228179         2275.1662201557      0.3590000000      12.2928885209      1.0809181602      0.0000000000
1.0197104564         2181.2723960315      0.3610000000      12.2941227523      1.0903446081      0.0000000000
1.0278477346         2092.2007678950      0.3630000000      12.2952884618      1.0997250983      0.0000000000
1.0359342559         2007.6618937546      0.3650000000      12.2963838364      1.1090590013      0.0000000000
1.0439696620         1927.3870597550      0.3670000000      12.2974084141      1.1183457297      0.0000000000
1.0519536085         1851.1242434712      0.3690000000      12.2983604419      1.1275847109      0.0000000000
1.0598857875         1778.6393135473      0.3710000000      12.2992394445      1.1367754124      0.0000000000
1.0677659122         1709.7130868664      0.3730000000      12.3000445777      1.1459173246      0.0000000000
1.0755937172         1644.1405555124      0.3750000000      12.3007747840      1.1550099621      0.0000000000
1.0833689692         1581.7308333213      0.3770000000      12.3014299527      1.1640528749      0.0000000000
1.0910914510         1522.3045338975      0.3790000000      12.3020092823      1.1730456311      0.0000000000
1.0987609703         1465.6941587508      0.3810000000      12.3025123028      1.1819878266      0.0000000000
1.1063773582         1411.7429079006      0.3830000000      12.3029387921      1.1908790843      0.0000000000
1.1139404686         1360.3039155064      0.3850000000      12.3032886940      1.1997190526      0.0000000000
1.1214501693         1311.2391169984      0.3870000000      12.3035613342      1.2085073961      0.0000000000
1.1289063584         1264.4197313332      0.3890000000      12.3037571839      1.2172438138      0.0000000000
1.1363089458         1219.7243883072      0.3910000000      12.3038759197      1.2259280191      0.0000000000
1.1436578629         1177.0393532817      0.3930000000      12.3039175619      1.2345597499      0.0000000000
1.1509530567         1136.2574805040      0.3950000000      12.3038818454      1.2431387624      0.0000000000
1.1581945030         1097.2791468300      0.3970000000      12.3037698833      1.2516648473      0.0000000000
1.1653821820         1060.0095803544      0.3990000000      12.3035813131      1.2601377999      0.0000000000
1.1725160904         1024.3597316559      0.4010000000      12.3033157792      1.2685574356      0.0000000000
1.1795962543          990.2467356118      0.4030000000      12.3029746103      1.2769236048      0.0000000000
1.1866227024          957.5916966484      0.4050000000      12.3025575537      1.2852361616      0.0000000000
1.1935954832          926.3206902450      0.4070000000      12.3020650442      1.2934949836      0.0000000000
1.2005146631          896.3642283910      0.4090000000      12.3014979500      1.3016999708      0.0000000000
1.2073803115          867.6562034453      0.4110000000      12.3008558225      1.3098510270      0.0000000000
1.2141925234          840.1349457125      0.4130000000      12.3001397224      1.3179480872      0.0000000000
1.2209514028          813.7421197214      0.4150000000      12.2993503175      1.3259910982      0.0000000000
1.2276570610          788.4223326118      0.4170000000      12.2984876320      1.3339800163      0.0000000000
1.2343096287          764.1237432485      0.4190000000      12.2975526195      1.3419148217      0.0000000000
1.2409092448          740.7972049421      0.4210000000      12.2965459199      1.3497955056      0.0000000000
1.2474560525          718.3958978977      0.4230000000      12.2954672754      1.3576220653      0.0000000000
1.2539502214          696.8764476452      0.4250000000      12.2943185065      1.3653945311      0.0000000000
1.2603919160          676.1969863207      0.4270000000      12.2930994728      1.3731129281      0.0000000000
1.2667813183          656.3183567055      0.4290000000      12.2918111111      1.3807773037      0.0000000000
1.2731186204          637.2035469043      0.4310000000      12.2904544287      1.3883877189      0.0000000000
1.2794040144          618.8170628931      0.4330000000      12.2890293507      1.3959442358      0.0000000000
1.2856377084          601.1256508588      0.4350000000      12.2875367260      1.4034469372      0.0000000000
1.2918199189          584.0978546247      0.4370000000      12.2859775281      1.4108959174      0.0000000000
1.2979508691          567.7037781079      0.4390000000      12.2843526066      1.4182912807      0.0000000000
1.3040307862          551.9149516669      0.4410000000      12.2826623422      1.4256331369      0.0000000000
1.3100599103          536.7046302257      0.4430000000      12.2809079478      1.4329216137      0.0000000000
1.3160384809          522.0471117468      0.4450000000      12.2790896744      1.4401568393      0.0000000000
1.3219667466          507.9181555955      0.4470000000      12.2772081777      1.4473389541      0.0000000000
1.3278449654          494.2948809766      0.4490000000      12.2752645822      1.4544681125      0.0000000000
1.3336733982          481.1554056013      0.4510000000      12.2732596011      1.4615444732      0.0000000000
1.3394523108          468.4789835814      0.4530000000      12.2711939708      1.4685682028      0.0000000000
1.3451819726          456.2458174876      0.4550000000      12.2690682207      1.4755394741      0.0000000000
1.3508626585          444.4370871942      0.4570000000      12.2668829564      1.4824584679      0.0000000000
1.3564946539          433.0351848526      0.4590000000      12.2646396768      1.4893253805      0.0000000000
1.3620782384          422.0229455799      0.4610000000      12.2623384706      1.4961404013      0.0000000000
1.3676137048          411.3843623790      0.4630000000      12.2599807348      1.5029037391      0.0000000000
1.3731013380          401.1038396802      0.4650000000      12.2575662893      1.5096155937      0.0000000000
1.3785414373          391.1668691860      0.4670000000      12.2550964593      1.5162761850      0.0000000000
1.3839343013          381.5595116159      0.4690000000      12.2525720662      1.5228857336      0.0000000000
1.3892802313          372.2684696029      0.4710000000      12.2499938484      1.5294444649      0.0000000000
1.3945795289          363.2810098008      0.4730000000      12.2473622818      1.5359526069      0.0000000000
1.3998325005          354.5850640962      0.4750000000      12.2446781491      1.5424103952      0.0000000000
1.4050394571          346.1691730586      0.4770000000      12.2419425388      1.5488180726      0.0000000000
1.4102007056          338.0222412097      0.4790000000      12.2391557039      1.5551758790      0.0000000000
1.4153165632          330.1339346250      0.4810000000      12.2363191146      1.5614840688      0.0000000000
1.4203873386          322.4940558564      0.4830000000      12.2334327005      1.5677428873      0.0000000000
1.4254133473          315.0930715391      0.4850000000      12.2304972943      1.5739525904      0.0000000000
1.4303949107          307.9219700215      0.4870000000      12.2275142537      1.5801134431      0.0000000000
1.4353323430          300.9719312007      0.4890000000      12.2244838482      1.5862257033      0.0000000000
1.4402259617          294.2345760036      0.4910000000      12.2214065912      1.5922896344      0.0000000000
1.4450760860          287.7019236643      0.4930000000      12.2182831954      1.5983055041      0.0000000000
1.4498830393          281.3664363083      0.4950000000      12.2151148101      1.6042735870      0.0000000000
1.4546471404          275.2207800404      0.4970000000      12.2119019442      1.6101941540      0.0000000000
1.4593687109          269.2579835296      0.4990000000      12.2086453877      1.6160674810      0.0000000000
1.4640480668          263.4712479952      0.5010000000      12.2053450526      1.6218938384      0.0000000000
1.4686855366          257.8543538830      0.5030000000      12.2020027269      1.6276735147      0.0000000000
1.4732814354          252.4010369806      0.5050000000      12.1986182156      1.6334067829      0.0000000000
1.4778360864          247.1054887928      0.5070000000      12.1951925103      1.6390939280      0.0000000000
1.4823498122          241.9621222177      0.5090000000      12.1917265368      1.6447352361      0.0000000000
1.4868229284          236.9654590425      0.5110000000      12.1882203071      1.6503309861      0.0000000000
1.4912557587          232.1104238439      0.5130000000      12.1846750360      1.6558814688      0.0000000000
