# M(M_sol)                 Lambda          n_Bc(fm^-3)         R(km)            m_B(M_sol)        m_Bquar/M_B
0.1541395638     43974278.2914860547      0.0910000000      23.4562941099      0.1544033027      0.0000000000
0.1603707395     36388503.8448644504      0.0930000000      22.5232019041      0.1607227631      0.0000000000
0.1667020403     30330304.5615556240      0.0950000000      21.7225633013      0.1671492492      0.0000000000
0.1731273527     25441468.6162271351      0.0970000000      21.0293630530      0.1736767671      0.0000000000
0.1796414183     21461624.5498013981      0.0990000000      20.4243930023      0.1803001783      0.0000000000
0.1862397263     18197147.7885596044      0.1010000000      19.8926721241      0.1870150919      0.0000000000
0.1929184275     15501474.2833578456      0.1030000000      19.4223550980      0.1938177803      0.0000000000
0.1996742685     13262081.5030078534      0.1050000000      19.0039627809      0.2007051144      0.0000000000
0.2065045295     11391529.5731863100      0.1070000000      18.6298242139      0.2076745022      0.0000000000
0.2134069790      9821184.8040958215      0.1090000000      18.2936702590      0.2147238446      0.0000000000
0.2203798297      8496707.0483237058      0.1110000000      17.9903324281      0.2218514921      0.0000000000
0.2274043779      7377268.9669983611      0.1130000000      17.7161544425      0.2290384767      0.0000000000
0.2343471389      6443175.9661871502      0.1150000000      17.4717591804      0.2361481706      0.0000000000
0.2412662289      5651882.5827924954      0.1170000000      17.2509065985      0.2432399307      0.0000000000
0.2481861751      4975599.8817202337      0.1190000000      17.0497463742      0.2503388559      0.0000000000
0.2551181050      4394068.4606922930      0.1210000000      16.8655395640      0.2574563712      0.0000000000
0.2620692918      3891493.4574568551      0.1230000000      16.6961197415      0.2645999805      0.0000000000
0.2690453325      3455254.7835559868      0.1250000000      16.5397107775      0.2717754911      0.0000000000
0.2760509736      3075116.1716641826      0.1270000000      16.3948277894      0.2789878557      0.0000000000
0.2830904822      2742689.1075344230      0.1290000000      16.2602132654      0.2862415519      0.0000000000
0.2901678451      2451043.6615681830      0.1310000000      16.1347933599      0.2935407850      0.0000000000
0.2972868720      2194412.8723019282      0.1330000000      16.0176427420      0.3008895936      0.0000000000
0.3044512641      1967970.2018738717      0.1350000000      15.9079604177      0.3082919200      0.0000000000
0.3116646486      1767652.9719310291      0.1370000000      15.8050481351      0.3157516455      0.0000000000
0.3189306050      1590025.5179014606      0.1390000000      15.7082952966      0.3232726172      0.0000000000
0.3262526768      1432168.6338298928      0.1410000000      15.6171650396      0.3308586607      0.0000000000
0.3336343771      1291592.0164783595      0.1430000000      15.5311837567      0.3385135852      0.0000000000
0.3410791967      1166162.6790358075      0.1450000000      15.4499322760      0.3462411932      0.0000000000
0.3485905983      1054047.0380486345      0.1470000000      15.3730381166      0.3540452734      0.0000000000
0.3561720200       953663.4686479444      0.1490000000      15.3001696513      0.3619296052      0.0000000000
0.3638268689       863643.0670295684      0.1510000000      15.2310304419      0.3698979523      0.0000000000
0.3715585181       782797.7329088217      0.1530000000      15.1653551525      0.3779540596      0.0000000000
0.3793703017       710092.7169280587      0.1550000000      15.1029052801      0.3861016481      0.0000000000
0.3872655087       644624.8805564074      0.1570000000      15.0434664160      0.3943444091      0.0000000000
0.3952473846       585603.4273285662      0.1590000000      14.9868448992      0.4026860054      0.0000000000
0.4033190957       532334.4723740862      0.1610000000      14.9328658514      0.4111300348      0.0000000000
0.4114837658       484207.4096060642      0.1630000000      14.8813706114      0.4196800682      0.0000000000
0.4197444401       440683.8769212852      0.1650000000      14.8322151583      0.4283396120      0.0000000000
0.4281040869       401288.0854931111      0.1670000000      14.7852685187      0.4371121103      0.0000000000
0.4365655880       365598.6602366982      0.1690000000      14.7404111500      0.4460009342      0.0000000000
0.4451317326       333241.7071757985      0.1710000000      14.6975338067      0.4550093757      0.0000000000
0.4538052112       303884.7599279652      0.1730000000      14.6565364600      0.4641406413      0.0000000000
0.4625886063       277231.6994666297      0.1750000000      14.6173272858      0.4733978423      0.0000000000
0.4714843867       253018.3209127912      0.1770000000      14.5798218088      0.4827839881      0.0000000000
0.4804948995       231008.4845723166      0.1790000000      14.5439420949      0.4923019779      0.0000000000
0.4896223640       210990.7879429338      0.1810000000      14.5096161336      0.5019545940      0.0000000000
0.4988688597       192775.7445275632      0.1830000000      14.4767771235      0.5117444889      0.0000000000
0.5082363375       176193.2160543122      0.1850000000      14.4453630649      0.5216741962      0.0000000000
0.5177265869       161090.2918556470      0.1870000000      14.4153161343      0.5317460961      0.0000000000
0.5273412480       147329.3006712968      0.1890000000      14.3865822436      0.5419624273      0.0000000000
0.5370817998       134786.2321786269      0.1910000000      14.3591108298      0.5523252740      0.0000000000
0.5469495568       123349.1861670333      0.1930000000      14.3328543341      0.5628365616      0.0000000000
0.5569456617       112917.0998491935      0.1950000000      14.3077677714      0.5734980479      0.0000000000
0.5670710824       103398.6517063568      0.1970000000      14.2838088873      0.5843113202      0.0000000000
0.5773266055        94711.2054344486      0.1990000000      14.2609373522      0.5952777858      0.0000000000
0.5877128342        86779.9328896659      0.2010000000      14.2391148998      0.6063986704      0.0000000000
0.5982301847        79537.0166292513      0.2030000000      14.2183050101      0.6176750120      0.0000000000
0.6088788816        72920.9787485855      0.2050000000      14.1984727356      0.6291076559      0.0000000000
0.6196589572        66876.0171079771      0.2070000000      14.1795845116      0.6406972518      0.0000000000
0.6305702486        61351.4702811450      0.2090000000      14.1616080841      0.6524442500      0.0000000000
0.6416123960        56301.2989109049      0.2110000000      14.1445121876      0.6643488984      0.0000000000
0.6527848428        51683.6787673667      0.2130000000      14.1282667903      0.6764112406      0.0000000000
0.6640868342        47460.5552079481      0.2150000000      14.1128425901      0.6886311136      0.0000000000
0.6755174184        43597.3195479610      0.2170000000      14.0982112105      0.7010081469      0.0000000000
0.6870754458        40062.4701944883      0.2190000000      14.0843449903      0.7135417609      0.0000000000
0.6987595728        36827.3233561919      0.2210000000      14.0712169955      0.7262311687      0.0000000000
0.7105682613        33865.7643680669      0.2230000000      14.0588008406      0.7390753739      0.0000000000
0.7224997827        31153.9928957779      0.2250000000      14.0470707574      0.7520731738      0.0000000000
0.7345522199        28670.3338784290      0.2270000000      14.0360015325      0.7652231594      0.0000000000
0.7467234726        26395.0202378517      0.2290000000      14.0255684351      0.7785237193      0.0000000000
0.7590112586        24310.0386742428      0.2310000000      14.0157471837      0.7919730395      0.0000000000
0.7714131208        22398.9612403493      0.2330000000      14.0065139250      0.8055691093      0.0000000000
0.7839264312        20646.8101689933      0.2350000000      13.9978453167      0.8193097235      0.0000000000
0.7965483966        19039.9188885979      0.2370000000      13.9897183875      0.8331924873      0.0000000000
0.8092760645        17565.8230283159      0.2390000000      13.9821105472      0.8472148203      0.0000000000
0.8221063290        16213.1486770881      0.2410000000      13.9749995744      0.8613739620      0.0000000000
0.8350359389        14971.5168109342      0.2430000000      13.9683637223      0.8756669779      0.0000000000
0.8480615029        13831.4565246944      0.2450000000      13.9621815701      0.8900907639      0.0000000000
0.8611794984        12784.3200744618      0.2470000000      13.9564320642      0.9046420547      0.0000000000
0.8743862783        11822.2168196572      0.2490000000      13.9510946141      0.9193174289      0.0000000000
0.8876780793        10937.9409469138      0.2510000000      13.9461489282      0.9341133164      0.0000000000
0.9010510301        10124.9119653054      0.2530000000      13.9415752143      0.9490260070      0.0000000000
0.9145011592         9377.1217333604      0.2550000000      13.9373539444      0.9640516560      0.0000000000
0.9280244040         8689.0817394974      0.2570000000      13.9334661393      0.9791862938      0.0000000000
0.9416166188         8055.7796798056      0.2590000000      13.9298931088      0.9944258327      0.0000000000
0.9552735825         7472.6354399120      0.2610000000      13.9266166606      1.0097660750      0.0000000000
0.9689910097         6935.4639641162      0.2630000000      13.9236189263      1.0252027230      0.0000000000
0.9827645567         6440.4417345830      0.2650000000      13.9208825624      1.0407313855      0.0000000000
0.9965898322         5984.0728314058      0.2670000000      13.9183906096      1.0563475879      0.0000000000
1.0104624044         5563.1622423520      0.2690000000      13.9161265683      1.0720467793      0.0000000000
1.0243778101         5174.7881751155      0.2710000000      13.9140742953      1.0878243421      0.0000000000
1.0383315625         4816.2794782659      0.2730000000      13.9122181980      1.1036755998      0.0000000000
1.0523191604         4485.1922836188      0.2750000000      13.9105430707      1.1195958262      0.0000000000
1.0663360950         4179.2913192043      0.2770000000      13.9090341667      1.1355802529      0.0000000000
1.0803778589         3896.5309949164      0.2790000000      13.9076771659      1.1516240785      0.0000000000
1.0944399531         3635.0390475838      0.2810000000      13.9064582594      1.1677224766      0.0000000000
1.1085178941         3393.1019223925      0.2830000000      13.9053640535      1.1838706030      0.0000000000
1.1226072217         3169.1502093849      0.2850000000      13.9043815482      1.2000636043      0.0000000000
1.1367035059         2961.7468415324      0.2870000000      13.9034983056      1.2162966257      0.0000000000
1.1508023525         2769.5752073142      0.2890000000      13.9027022593      1.2325648175      0.0000000000
1.1648994107         2591.4287536371      0.2910000000      13.9019818090      1.2488633433      0.0000000000
1.1789903782         2426.2016287841      0.2930000000      13.9013257977      1.2651873866      0.0000000000
1.1930710075         2272.8798345222      0.2950000000      13.9007235165      1.2815321574      0.0000000000
1.2071371107         2130.5335350360      0.2970000000      13.9001646351      1.2978928985      0.0000000000
1.2211845653         1998.3094062815      0.2990000000      13.8996393562      1.3142648925      0.0000000000
1.2352093177         1875.4248141307      0.3010000000      13.8991381961      1.3306434660      0.0000000000
1.2492073892         1761.1609177491      0.3030000000      13.8986521582      1.3470239973      0.0000000000
1.2631748799         1654.8577594761      0.3050000000      13.8981726348      1.3634019215      0.0000000000
1.2771079690         1555.9091502364      0.3070000000      13.8976914172      1.3797727309      0.0000000000
1.2910029235         1463.7578979537      0.3090000000      13.8972006667      1.3961319869      0.0000000000
1.3048560986         1377.8919828670      0.3110000000      13.8966930039      1.4124753201      0.0000000000
1.3186639403         1297.8404861568      0.3130000000      13.8961613520      1.4287984347      0.0000000000
1.3324229886         1223.1702361293      0.3150000000      13.8955990388      1.4450971134      0.0000000000
1.3461298795         1153.4825720445      0.3170000000      13.8949997673      1.4613672198      0.0000000000
1.3597813465         1088.4105500082      0.3190000000      13.8943575603      1.4776047022      0.0000000000
1.3733742228         1027.6162091196      0.3210000000      13.8936668076      1.4938055963      0.0000000000
1.3869054425          970.7881323149      0.3230000000      13.8929222083      1.5099660280      0.0000000000
1.4003720413          917.6393946452      0.3250000000      13.8921188155      1.5260822153      0.0000000000
1.4137711578          867.9054010276      0.3270000000      13.8912519757      1.5421504709      0.0000000000
1.4271000337          821.3420568952      0.3290000000      13.8903173499      1.5581672038      0.0000000000
1.4403560141          777.7241923470      0.3310000000      13.8893108803      1.5741289203      0.0000000000
1.4535365482          736.8438502663      0.3330000000      13.8882287901      1.5900322263      0.0000000000
1.4666391886          698.5090042928      0.3350000000      13.8870676312      1.6058738278      0.0000000000
1.4796615909          662.5422828333      0.3370000000      13.8858241274      1.6216505314      0.0000000000
1.4926015139          628.7796945291      0.3390000000      13.8844953435      1.6373592454      0.0000000000
1.5054568183          597.0695778933      0.3410000000      13.8830785497      1.6529969802      0.0000000000
1.5182254661          567.2716613958      0.3430000000      13.8815712522      1.6685608482      0.0000000000
1.5309055198          539.2561007735      0.3450000000      13.8799712049      1.6840480640      0.0000000000
1.5434951405          512.9026929311      0.3470000000      13.8782763544      1.6994559440      0.0000000000
1.5559925879          488.1000596163      0.3490000000      13.8764848734      1.7147819064      0.0000000000
1.5683962179          464.7449932272      0.3510000000      13.8745951410      1.7300234705      0.0000000000
1.5807044813          442.7418206050      0.3530000000      13.8726057020      1.7451782559      0.0000000000
1.5929159224          422.0017847702      0.3550000000      13.8705153051      1.7602439819      0.0000000000
1.6050291774          402.4425240479      0.3570000000      13.8683228712      1.7752184667      0.0000000000
1.6170429721          383.9875934741      0.3590000000      13.8660274750      1.7900996259      0.0000000000
1.6289561209          366.5659677400      0.3610000000      13.8636283644      1.8048854716      0.0000000000
1.6407675247          350.1116637679      0.3630000000      13.8611249359      1.8195741124      0.0000000000
1.6524761662          334.5633414606      0.3650000000      13.8585167071      1.8341637472      0.0000000000
1.6640811133          319.8639302390      0.3670000000      13.8558033766      1.8486526711      0.0000000000
1.6755815128          305.9603753583      0.3690000000      13.8529847387      1.8630392684      0.0000000000
1.6869765896          292.8032355451      0.3710000000      13.8500606916      1.8773220129      0.0000000000
1.6982656447          280.3465305892      0.3730000000      13.8470313013      1.8914994660      0.0000000000
1.7094480529          268.5473408065      0.3750000000      13.8438967040      1.9055702754      0.0000000000
1.7205232606          257.3657399268      0.3770000000      13.8406571526      1.9195331722      0.0000000000
1.7314907837          246.7644534925      0.3790000000      13.8373129963      1.9333869704      0.0000000000
1.7423502057          236.7086969819      0.3810000000      13.8338646612      1.9471305641      0.0000000000
1.7531011750          227.1660419659      0.3830000000      13.8303126872      1.9607629263      0.0000000000
1.7637434035          218.1061723323      0.3850000000      13.8266576568      1.9742831065      0.0000000000
1.7742766634          209.5007924080      0.3870000000      13.8229002630      1.9876902291      0.0000000000
1.7847007864          201.3234434517      0.3890000000      13.8190412555      2.0009834912      0.0000000000
1.7950156604          193.5493833084      0.3910000000      13.8150814394      2.0141621611      0.0000000000
1.8052212282          186.1554886167      0.3930000000      13.8110216909      2.0272255756      0.0000000000
1.8153174849          179.1201013850      0.3950000000      13.8068629354      2.0401731389      0.0000000000
1.8253044765          172.4229459480      0.3970000000      13.8026061724      2.0530043201      0.0000000000
1.8351822973          166.0450458499      0.3990000000      13.7982524125      2.0657186514      0.0000000000
1.8449510882          159.9686091232      0.4010000000      13.7938027419      2.0783157264      0.0000000000
1.8546110348          154.1769565227      0.4030000000      13.7892582625      2.0907951975      0.0000000000
1.8641623655          148.6544470830      0.4050000000      13.7846201580      2.1031567752      0.0000000000
1.8736053493          143.3864098312      0.4070000000      13.7798895699      2.1154002249      0.0000000000
1.8829402949          138.3590699343      0.4090000000      13.7750677591      2.1275253659      0.0000000000
1.8921675475          133.5594992337      0.4110000000      13.7701559505      2.1395320691      0.0000000000
1.9012874885          128.9755485104      0.4130000000      13.7651554108      2.1514202557      0.0000000000
1.9103005328          124.5957983507      0.4150000000      13.7600674374      2.1631898948      0.0000000000
1.9192071277          120.4095160114      0.4170000000      13.7548933496      2.1748410023      0.0000000000
1.9280077508          116.4066085820      0.4190000000      13.7496344736      2.1863736382      0.0000000000
1.9367029093          112.5775737130      0.4210000000      13.7442921412      2.1977879062      0.0000000000
1.9452931373          108.9134673494      0.4230000000      13.7388677255      2.2090839510      0.0000000000
1.9537789954          105.4058707988      0.4250000000      13.7333625826      2.2202619572      0.0000000000
1.9621610683          102.0468535686      0.4270000000      13.7277780977      2.2313221472      0.0000000000
1.9704399645           98.8289386053      0.4290000000      13.7221156553      2.2422647804      0.0000000000
1.9786163138           95.7450770868      0.4310000000      13.7163766371      2.2530901508      0.0000000000
1.9866907666           92.7886216116      0.4330000000      13.7105624303      2.2637985861      0.0000000000
1.9946639930           89.9532961528      0.4350000000      13.7046744464      2.2743904463      0.0000000000
2.0025366805           87.2331841779      0.4370000000      13.6987140660      2.2848661216      0.0000000000
2.0103095341           84.6226941066      0.4390000000      13.6926826927      2.2952260320      0.0000000000
2.0179832739           82.1165407323      0.4410000000      13.6865816972      2.3054706247      0.0000000000
2.0255586351           79.7097354574      0.4430000000      13.6804124967      2.3156003743      0.0000000000
2.0330363661           77.3975636033      0.4450000000      13.6741764488      2.3256157800      0.0000000000
2.0404172280           75.1755569400      0.4470000000      13.6678749502      2.3355173656      0.0000000000
2.0477019934           73.0395002708      0.4490000000      13.6615093640      2.3453056774      0.0000000000
