# M(M_sol)                 Lambda          n_Bc(fm^-3)         R(km)            m_B(M_sol)        m_Bquar/M_B
0.1528860917     47532087.4255567566      0.0870000000      23.8885097288      0.1531411617      0.0000000000
0.1599055212     38497194.1933504716      0.0890000000      22.8142631585      0.1602604936      0.0000000000
0.1670517081     31472472.3311610930      0.0910000000      21.9118168263      0.1675153268      0.0000000000
0.1743152687     25936674.1185980178      0.0930000000      21.1450075555      0.1748964198      0.0000000000
0.1816880086     21525828.1818535812      0.0950000000      20.4869799778      0.1823957154      0.0000000000
0.1891627387     17978269.5954336412      0.0970000000      19.9173928786      0.1900061570      0.0000000000
0.1967331443     15101680.6143832747      0.0990000000      19.4205751419      0.1977215589      0.0000000000
0.2043936776     12752176.6589107905      0.1010000000      18.9842676643      0.2055365005      0.0000000000
0.2121394817     10820563.9058499914      0.1030000000      18.5987525168      0.2134462505      0.0000000000
0.2199663132      9222983.6487906687      0.1050000000      18.2562332290      0.2214466918      0.0000000000
0.2278704993      7894357.6670831246      0.1070000000      17.9503877167      0.2295342787      0.0000000000
0.2358488766      6783729.4546795702      0.1090000000      17.6760396154      0.2377059781      0.0000000000
0.2438987577      5850877.1353523852      0.1110000000      17.4289131269      0.2459592361      0.0000000000
0.2519881649      5066456.4706416950      0.1130000000      17.2062233815      0.2542614163      0.0000000000
0.2599632851      4414977.3884501979      0.1150000000      17.0083144702      0.2624545249      0.0000000000
0.2678974678      3865040.6121452544      0.1170000000      16.8298464949      0.2706136630      0.0000000000
0.2758171581      3396662.2902166657      0.1190000000      16.6676594629      0.2787659295      0.0000000000
0.2837344241      2995218.6662713573      0.1210000000      16.5194780003      0.2869237121      0.0000000000
0.2916569815      2649338.1882136096      0.1230000000      16.3834980325      0.2950949581      0.0000000000
0.2995906326      2349962.4884731066      0.1250000000      16.2582384016      0.3032856716      0.0000000000
0.3075401926      2089772.0411025854      0.1270000000      16.1424605353      0.3115008613      0.0000000000
0.3155099180      1862790.6736276550      0.1290000000      16.0351156167      0.3197449788      0.0000000000
0.3235037350      1664098.4507050766      0.1310000000      15.9353072822      0.3280221526      0.0000000000
0.3315253640      1489616.4202890012      0.1330000000      15.8422639808      0.3363363153      0.0000000000
0.3395783923      1335942.2667804959      0.1350000000      15.7553172011      0.3446912780      0.0000000000
0.3476663225      1200222.3522504470      0.1370000000      15.6738849565      0.3530907804      0.0000000000
0.3557925993      1080050.8887622708      0.1390000000      15.5974577427      0.3615385181      0.0000000000
0.3639606253       973391.2617574539      0.1410000000      15.5255883475      0.3700381589      0.0000000000
0.3721737693       878510.9679937847      0.1430000000      15.4578818644      0.3785933509      0.0000000000
0.3804353746       793931.0078591915      0.1450000000      15.3939892559      0.3872077326      0.0000000000
0.3887487573       718383.7175347991      0.1470000000      15.3336004239      0.3958849295      0.0000000000
0.3971172053       650778.8666365970      0.1490000000      15.2764391616      0.4046285543      0.0000000000
0.4055439785       590175.6720862234      0.1510000000      15.2222590057      0.4134422069      0.0000000000
0.4140323014       535759.6823186978      0.1530000000      15.1708391215      0.4223294662      0.0000000000
0.4225853630       486823.7669875664      0.1550000000      15.1219815207      0.4312938912      0.0000000000
0.4312063074       442752.1602341740      0.1570000000      15.0755079687      0.4403390104      0.0000000000
0.4398982311       403007.1790967027      0.1590000000      15.0312578641      0.4494683193      0.0000000000
0.4486641818       367118.0412572525      0.1610000000      14.9890858981      0.4586852792      0.0000000000
0.4575071274       334671.7628035137      0.1630000000      14.9488609996      0.4679932849      0.0000000000
0.4664299883       305304.8215030342      0.1650000000      14.9104638468      0.4773956982      0.0000000000
0.4754356035       278696.7581698598      0.1670000000      14.8737861302      0.4868958126      0.0000000000
0.4845267329       254564.3542183742      0.1690000000      14.8387292503      0.4964968553      0.0000000000
0.4937060494       232656.7665658579      0.1710000000      14.8052031320      0.5062019794      0.0000000000
0.5029761313       212751.4613173062      0.1730000000      14.7731255712      0.5160142549      0.0000000000
0.5123394586       194650.5122400165      0.1750000000      14.7424212316      0.5259366654      0.0000000000
0.5217984026       178177.6717380483      0.1770000000      14.7130208901      0.5359720963      0.0000000000
0.5313552216       163175.6500772258      0.1790000000      14.6848609141      0.5461233306      0.0000000000
0.5410120568       149503.8274734174      0.1810000000      14.6578827889      0.5563930433      0.0000000000
0.5507709199       137036.3319800577      0.1830000000      14.6320321861      0.5667837887      0.0000000000
0.5606336935       125660.2792291113      0.1850000000      14.6072590252      0.5772980004      0.0000000000
0.5706021385       115274.2792007345      0.1870000000      14.5835167574      0.5879379981      0.0000000000
0.5806778236       105787.2008808688      0.1890000000      14.5607621139      0.5987059122      0.0000000000
0.5908622170        97116.9418840060      0.1910000000      14.5389546977      0.6096037812      0.0000000000
0.6011566173        89189.4708474092      0.1930000000      14.5180566366      0.6206334771      0.0000000000
0.6115621657        81937.9636800557      0.1950000000      14.4980325753      0.6317967177      0.0000000000
0.6220798397        75302.0235124309      0.1970000000      14.4788491330      0.6430950591      0.0000000000
0.6327104502        69227.0166162345      0.1990000000      14.4604749121      0.6545298918      0.0000000000
0.6434546371        63663.4546617686      0.2010000000      14.4428801649      0.6661024350      0.0000000000
0.6543128680        58566.4568282498      0.2030000000      14.4260366464      0.6778137340      0.0000000000
0.6652854317        53895.3294903633      0.2050000000      14.4099175152      0.6896646526      0.0000000000
0.6763724392        49613.0980813367      0.2070000000      14.3944971204      0.7016558723      0.0000000000
0.6875738201        45686.1616279519      0.2090000000      14.3797509042      0.7137878883      0.0000000000
0.6988893220        42083.9552601191      0.2110000000      14.3656553493      0.7260610069      0.0000000000
0.7103185080        38778.6688141028      0.2130000000      14.3521877440      0.7384753413      0.0000000000
0.7218607577        35744.9607352969      0.2150000000      14.3393261316      0.7510308120      0.0000000000
0.7335152668        32959.7500419999      0.2170000000      14.3270493973      0.7637271446      0.0000000000
0.7452810473        30401.9859153048      0.2190000000      14.3153369703      0.7765638683      0.0000000000
0.7571569152        28052.4659733875      0.2210000000      14.3041688203      0.7895403014      0.0000000000
0.7691415461        25893.6552573824      0.2230000000      14.2935255069      0.8026556101      0.0000000000
0.7812333963        23909.5546195336      0.2250000000      14.2833880687      0.8159087214      0.0000000000
0.7934307589        22085.5447380393      0.2270000000      14.2737379198      0.8292983814      0.0000000000
0.8057317543        20408.2624632899      0.2290000000      14.2645568327      0.8428231451      0.0000000000
0.8181343330        18865.4974021626      0.2310000000      14.2558270750      0.8564813760      0.0000000000
0.8306362796        17446.0797401245      0.2330000000      14.2475311518      0.8702712502      0.0000000000
0.8432352174        16139.7944268606      0.2350000000      14.2396519002      0.8841907589      0.0000000000
0.8559286129        14937.2945241416      0.2370000000      14.2321724597      0.8982377120      0.0000000000
0.8687137821        13830.0258476454      0.2390000000      14.2250762374      0.9124097432      0.0000000000
0.8815878955        12810.1568085800      0.2410000000      14.2183469887      0.9267043139      0.0000000000
0.8945479839        11870.5181611956      0.2430000000      14.2119686543      0.9411187179      0.0000000000
0.9075909447        11004.5435657538      0.2450000000      14.2059254434      0.9556500870      0.0000000000
0.9207135499        10206.2178527013      0.2470000000      14.2002019124      0.9702953976      0.0000000000
0.9339124511         9470.0304859422      0.2490000000      14.1947827123      0.9850514751      0.0000000000
0.9471841887         8790.9321368112      0.2510000000      14.1896529441      0.9999150026      0.0000000000
0.9605251973         8164.2954699647      0.2530000000      14.1847977960      1.0148825249      0.0000000000
0.9739318153         7585.8777424123      0.2550000000      14.1802028337      1.0299504586      0.0000000000
0.9874002912         7051.7905580948      0.2570000000      14.1758538415      1.0451150970      0.0000000000
1.0009267924         6558.4673006576      0.2590000000      14.1717368469      1.0603726187      0.0000000000
1.0145074122         6102.6379256927      0.2610000000      14.1678382025      1.0757190946      0.0000000000
1.0281381794         5681.3025727801      0.2630000000      14.1641445227      1.0911504967      0.0000000000
1.0418150647         5291.7093827310      0.2650000000      14.1606426992      1.1066627051      0.0000000000
1.0555339899         4931.3331231662      0.2670000000      14.1573198868      1.1222515163      0.0000000000
1.0692908349         4597.8571699557      0.2690000000      14.1541635731      1.1379126511      0.0000000000
1.0830814472         4289.1542614630      0.2710000000      14.1511615376      1.1536417635      0.0000000000
1.0969016488         4003.2721632052      0.2730000000      14.1483018635      1.1694344485      0.0000000000
1.1107472427         3738.4182340337      0.2750000000      14.1455729058      1.1852862480      0.0000000000
1.1246140233         3492.9463537843      0.2770000000      14.1429633852      1.2011926627      0.0000000000
1.1384977821         3265.3443786681      0.2790000000      14.1404622882      1.2171491574      0.0000000000
1.1523943150         3054.2231983918      0.2810000000      14.1380589425      1.2331511693      0.0000000000
1.1662994303         2858.3063470767      0.2830000000      14.1357430335      1.2491941164      0.0000000000
1.1802089544         2676.4205855709      0.2850000000      14.1335044803      1.2652734040      0.0000000000
1.1941187391         2507.4877207352      0.2870000000      14.1313336160      1.2813844332      0.0000000000
1.2080246680         2350.5162131008      0.2890000000      14.1292210612      1.2975226070      0.0000000000
1.2219226625         2204.5937261920      0.2910000000      14.1271577444      1.3136833387      0.0000000000
1.2358086872         2068.8818046939      0.2930000000      14.1251349492      1.3298620569      0.0000000000
1.2496787561         1942.6084826408      0.2950000000      14.1231442637      1.3460542134      0.0000000000
1.2635289376         1825.0632725199      0.2970000000      14.1211776268      1.3622552893      0.0000000000
1.2773553593         1715.5922800128      0.2990000000      14.1192272758      1.3784608007      0.0000000000
1.2911542125         1613.5931829767      0.3010000000      14.1172857427      1.3946663044      0.0000000000
1.3049217572         1518.5113835267      0.3030000000      14.1153459357      1.4108674035      0.0000000000
1.3186543255         1429.8357589430      0.3050000000      14.1134010472      1.4270597533      0.0000000000
1.3323483254         1347.0952957642      0.3070000000      14.1114445411      1.4432390651      0.0000000000
1.3460002445         1269.8557620574      0.3090000000      14.1094702571      1.4594011115      0.0000000000
1.3596066529         1197.7167565169      0.3110000000      14.1074722797      1.4755417308      0.0000000000
1.3731642060         1130.3088366779      0.3130000000      14.1054450067      1.4916568306      0.0000000000
1.3866696470         1067.2912284828      0.3150000000      14.1033831238      1.5077423922      0.0000000000
1.4001198094         1008.3492938437      0.3170000000      14.1012816150      1.5237944736      0.0000000000
1.4135116185          953.1924737188      0.3190000000      14.0991357037      1.5398092130      0.0000000000
1.4268420934          901.5525040310      0.3210000000      14.0969409020      1.5557828312      0.0000000000
1.4401083486          853.1814386541      0.3230000000      14.0946930302      1.5717116354      0.0000000000
1.4533075940          807.8500828474      0.3250000000      14.0923881070      1.5875920198      0.0000000000
1.4664371374          765.3466061833      0.3270000000      14.0900224313      1.6034204693      0.0000000000
1.4794943839          725.4750283563      0.3290000000      14.0875925371      1.6191935605      0.0000000000
1.4924768373          688.0539489983      0.3310000000      14.0850951896      1.6349079638      0.0000000000
1.5053820994          652.9155629503      0.3330000000      14.0825274202      1.6505604444      0.0000000000
1.5182078706          619.9044370169      0.3350000000      14.0798864355      1.6661478633      0.0000000000
1.5309519494          588.8766037246      0.3370000000      14.0771696698      1.6816671786      0.0000000000
1.5436122322          559.6986377062      0.3390000000      14.0743748018      1.6971154457      0.0000000000
1.5561867128          532.2468598772      0.3410000000      14.0714996807      1.7124898186      0.0000000000
1.5686734813          506.4065931327      0.3430000000      14.0685423382      1.7277875487      0.0000000000
1.5810707236          482.0714122828      0.3450000000      14.0655010317      1.7430059866      0.0000000000
1.5933767203          459.1425801089      0.3470000000      14.0623741539      1.7581425806      0.0000000000
1.6055898454          437.5283952679      0.3490000000      14.0591603022      1.7731948773      0.0000000000
1.6177085652          417.1436805040      0.3510000000      14.0558582393      1.7881605208      0.0000000000
1.6297314369          397.9093271365      0.3530000000      14.0524668560      1.8030372521      0.0000000000
1.6416571069          379.7517650382      0.3550000000      14.0489852347      1.8178229084      0.0000000000
1.6534843096          362.6025742579      0.3570000000      14.0454125942      1.8325154226      0.0000000000
1.6652118652          346.3981051120      0.3590000000      14.0417482438      1.8471128217      0.0000000000
1.6768386787          331.0791505533      0.3610000000      14.0379917006      1.8616132260      0.0000000000
1.6883637372          316.5905484379      0.3630000000      14.0341425527      1.8760148482      0.0000000000
1.6997861090          302.8809312495      0.3650000000      14.0302005503      1.8903159917      0.0000000000
1.7111049411          289.9024104941      0.3670000000      14.0261655040      1.9045150495      0.0000000000
1.7223194570          277.6103800197      0.3690000000      14.0220373886      1.9186105023      0.0000000000
1.7334289554          265.9632256064      0.3710000000      14.0178162422      1.9326009175      0.0000000000
1.7444328080          254.9221094181      0.3730000000      14.0135022148      1.9464849475      0.0000000000
1.7553304571          244.4507890953      0.3750000000      14.0090955604      1.9602613277      0.0000000000
1.7661214136          234.5154280442      0.3770000000      14.0045965995      1.9739288752      0.0000000000
1.7768052556          225.0844135180      0.3790000000      14.0000057381      1.9874864868      0.0000000000
1.7873816256          216.1281904717      0.3810000000      13.9953234683      2.0009331373      0.0000000000
1.7978502287          207.6191571570      0.3830000000      13.9905503500      2.0142678780      0.0000000000
1.8082108303          199.5314623840      0.3850000000      13.9856870058      2.0274898339      0.0000000000
1.8184632546          191.8409475389      0.3870000000      13.9807341247      2.0405982031      0.0000000000
1.8286073822          184.5249846270      0.3890000000      13.9756924631      2.0535922541      0.0000000000
1.8386431479          177.5623851306      0.3910000000      13.9705628206      2.0664713241      0.0000000000
1.8485705392          170.9332926750      0.3930000000      13.9653460576      2.0792348174      0.0000000000
1.8583895938          164.6191117304      0.3950000000      13.9600430681      2.0918822029      0.0000000000
1.8681003978          158.6024020327      0.3970000000      13.9546548024      2.1044130128      0.0000000000
1.8777030843          152.8667958973      0.3990000000      13.9491822550      2.1168268404      0.0000000000
1.8871978305          147.3969487197      0.4010000000      13.9436264579      2.1291233383      0.0000000000
1.8965848566          142.1784433444      0.4030000000      13.9379884413      2.1413022165      0.0000000000
1.9058644240          137.1977512576      0.4050000000      13.9322693245      2.1533632407      0.0000000000
1.9150368328          132.4421560362      0.4070000000      13.9264702168      2.1653062301      0.0000000000
1.9241024209          127.8997106583      0.4090000000      13.9205922585      2.1771310561      0.0000000000
1.9330615616          123.5591824689      0.4110000000      13.9146366325      2.1888376402      0.0000000000
1.9419146625          119.4099952418      0.4130000000      13.9086045073      2.2004259520      0.0000000000
1.9506621632          115.4422183990      0.4150000000      13.9024971009      2.2118960079      0.0000000000
1.9593045345          111.6464815588      0.4170000000      13.8963156426      2.2232478693      0.0000000000
1.9678422760          108.0139770194      0.4190000000      13.8900613589      2.2344816408      0.0000000000
1.9762759151          104.5364023840      0.4210000000      13.8837355082      2.2455974683      0.0000000000
1.9846060057          101.2059234900      0.4230000000      13.8773393381      2.2565955380      0.0000000000
1.9928331260           98.0151743472      0.4250000000      13.8708741308      2.2674760740      0.0000000000
2.0009578780           94.9571906638      0.4270000000      13.8643411353      2.2782393376      0.0000000000
2.0089808862           92.0254117427      0.4290000000      13.8577416513      2.2888856260      0.0000000000
2.0169027938           89.2136414044      0.4310000000      13.8510769578      2.2994152676      0.0000000000
2.0247242657           86.5160280152      0.4330000000      13.8443483375      2.3098286255      0.0000000000
2.0324459841           83.9270466722      0.4350000000      13.8375570831      2.3201260931      0.0000000000
2.0400686483           81.4414768793      0.4370000000      13.8307044604      2.3303080930      0.0000000000
2.0475929737           79.0543855321      0.4390000000      13.8237917682      2.3403750761      0.0000000000
2.0550196902           76.7611033856      0.4410000000      13.8168202682      2.3503275199      0.0000000000
2.0623495416           74.5572191464      0.4430000000      13.8097912538      2.3601659277      0.0000000000
2.0695832844           72.4385556463      0.4450000000      13.8027059874      2.3698908267      0.0000000000
