# M(M_sol)                 Lambda          n_Bc(fm^-3)         R(km)            m_B(M_sol)        m_Bquar/M_B
0.1507983673     24489963.8511262089      0.1360000000      20.2120474672      0.1509585647      0.0000000000
0.1549632305     21146966.2113549300      0.1380000000      19.6321682572      0.1551780823      0.0000000000
0.1592609645     18291102.9800154381      0.1400000000      19.1031835702      0.1595351070      0.0000000000
0.1636913659     15846208.9467178229      0.1420000000      18.6195989754      0.1640296912      0.0000000000
0.1682542368     13749158.7980289329      0.1440000000      18.1766410536      0.1686618993      0.0000000000
0.1729493752     11947329.9303462896      0.1460000000      17.7701462974      0.1734317982      0.0000000000
0.1777765714     10396645.6259769443      0.1480000000      17.3964691143      0.1783394533      0.0000000000
0.1827356364      9060044.7299797181      0.1500000000      17.0524072018      0.1833849574      0.0000000000
0.1878263519      7906274.7083385764      0.1520000000      16.7351391127      0.1885683801      0.0000000000
0.1930484891      6908902.7342800498      0.1540000000      16.4421672197      0.1938897861      0.0000000000
0.1984018497      6045530.2753228843      0.1560000000      16.1712801859      0.1993492779      0.0000000000
0.2038861808      5297133.8061211742      0.1580000000      15.9205086936      0.2049469082      0.0000000000
0.2095012405      4647532.2231516605      0.1600000000      15.6880983097      0.2106827472      0.0000000000
0.2152467582      4082937.4671272431      0.1620000000      15.4724798036      0.2165568417      0.0000000000
0.2211224457      3591583.8587506018      0.1640000000      15.2722470897      0.2225692262      0.0000000000
0.2271279936      3163417.0202157679      0.1660000000      15.0861372409      0.2287199200      0.0000000000
0.2332630518      2789833.5472763726      0.1680000000      14.9130123904      0.2350089056      0.0000000000
0.2395272508      2463459.9937372427      0.1700000000      14.7518455362      0.2414361517      0.0000000000
0.2459201980      2177973.7754474846      0.1720000000      14.6017100218      0.2480016085      0.0000000000
0.2524414398      1927940.1368537128      0.1740000000      14.4617634854      0.2547051691      0.0000000000
0.2590905009      1708687.3226519658      0.1760000000      14.3312430390      0.2615467090      0.0000000000
0.2658668625      1516191.2292580958      0.1780000000      14.2094543844      0.2685260644      0.0000000000
0.2727699553      1346981.8272887033      0.1800000000      14.0957642653      0.2756430234      0.0000000000
0.2797991512      1198064.1946200305      0.1820000000      13.9895941000      0.2828973185      0.0000000000
0.2869537951      1066849.7817712442      0.1840000000      13.8904161253      0.2902886585      0.0000000000
0.2942331690       951098.7851667088      0.1860000000      13.7977464035      0.2978166909      0.0000000000
0.3016364875       848870.3786634463      0.1880000000      13.7111399187      0.3054809974      0.0000000000
0.3091629324       758481.5949063433      0.1900000000      13.6301894405      0.3132811290      0.0000000000
0.3168116026       678470.6461915057      0.1920000000      13.5545185627      0.3212165537      0.0000000000
0.3245815514       607566.7644856657      0.1940000000      13.4837812785      0.3292866950      0.0000000000
0.3324717610       544663.8496608970      0.1960000000      13.4176577282      0.3374909050      0.0000000000
0.3404811499       488797.9939091548      0.1980000000      13.3558521153      0.3458284711      0.0000000000
0.3486085835       439128.4304166174      0.2000000000      13.2980915864      0.3542986275      0.0000000000
0.3568528391       394920.6746896466      0.2020000000      13.2441216669      0.3629005170      0.0000000000
0.3652126484       355532.6107713710      0.2040000000      13.1937075883      0.3716332363      0.0000000000
0.3736866631       320402.2236402037      0.2060000000      13.1466304892      0.3804957982      0.0000000000
0.3822734754       289037.0108428861      0.2080000000      13.1026872882      0.3894871532      0.0000000000
0.3909715963       261004.8239416465      0.2100000000      13.0616877735      0.3986061662      0.0000000000
0.3997794808       235926.2701770408      0.2120000000      13.0234555433      0.4078516420      0.0000000000
0.4086955119       213467.8380759166      0.2140000000      12.9878256609      0.4172223082      0.0000000000
0.4177180050       193335.9791664769      0.2160000000      12.9546439211      0.4267168192      0.0000000000
0.4268452093       175272.1094481020      0.2180000000      12.9237660897      0.4363337569      0.0000000000
0.4360753019       159048.1914722260      0.2200000000      12.8950567218      0.4460716239      0.0000000000
0.4454064045       144462.9625265833      0.2220000000      12.8683895133      0.4559288608      0.0000000000
0.4548365711       131338.5726438700      0.2240000000      12.8436457690      0.4659038319      0.0000000000
0.4643637895       119517.6910262000      0.2260000000      12.8207136486      0.4759948271      0.0000000000
0.4739859890       108861.0475121711      0.2280000000      12.7994882995      0.4862000683      0.0000000000
0.4837010380        99245.2153753019      0.2300000000      12.7798709761      0.4965177071      0.0000000000
0.4935067508        90560.7202909547      0.2320000000      12.7617690110      0.5069458312      0.0000000000
0.5034008834        82710.3505140858      0.2340000000      12.7450948286      0.5174824587      0.0000000000
0.5133811358        75607.7063296578      0.2360000000      12.7297656840      0.5281255408      0.0000000000
0.5234451614        69175.9482341419      0.2380000000      12.7157038752      0.5388729707      0.0000000000
0.5335905639        63346.6651802922      0.2400000000      12.7028360520      0.5497225795      0.0000000000
0.5438148973        58058.8782187851      0.2420000000      12.6910925447      0.5606721361      0.0000000000
0.5541156746        53258.2119128612      0.2440000000      12.6804078079      0.5717193556      0.0000000000
0.5644903680        48896.1222497637      0.2460000000      12.6707198402      0.5828618990      0.0000000000
0.5749364070        44929.2296475782      0.2480000000      12.6619696456      0.5940973706      0.0000000000
0.5854511929        41318.7529233451      0.2500000000      12.6541019124      0.6054233328      0.0000000000
0.5960320863        38029.9722295682      0.2520000000      12.6470636658      0.6168372927      0.0000000000
0.6066764216        35031.7912691329      0.2540000000      12.6408049493      0.6283367167      0.0000000000
0.6173815096        32296.3380436452      0.2560000000      12.6352786742      0.6399190332      0.0000000000
0.6281446338        29798.5978661804      0.2580000000      12.6304398745      0.6515816273      0.0000000000
0.6389630513        27516.1043075275      0.2600000000      12.6262454522      0.6633218427      0.0000000000
0.6498340174        25428.6814475626      0.2620000000      12.6226557265      0.6751370068      0.0000000000
0.6607547627        23518.1768179402      0.2640000000      12.6196323084      0.6870244059      0.0000000000
0.6717224971        21768.2376437394      0.2660000000      12.6171379577      0.6989812892      0.0000000000
0.6827344438        20164.1583185928      0.2680000000      12.6151390953      0.7110049054      0.0000000000
0.6937877985        18692.6579879446      0.2700000000      12.6136019536      0.7230924579      0.0000000000
0.7048797763        17341.7715087653      0.2720000000      12.6124959247      0.7352411558      0.0000000000
0.7160075708        16100.6881941715      0.2740000000      12.6117912511      0.7474481688      0.0000000000
0.7271683883        14959.6382871064      0.2760000000      12.6114593094      0.7597106644      0.0000000000
0.7383594508        13909.7962516194      0.2780000000      12.6114739907      0.7720258115      0.0000000000
0.7495779756        12943.1673842883      0.2800000000      12.6118094166      0.7843907567      0.0000000000
0.7608211975        12052.5156862171      0.2820000000      12.6124414205      0.7968026501      0.0000000000
0.7720863671        11231.2845486832      0.2840000000      12.6133471825      0.8092586421      0.0000000000
0.7833707496        10473.5270168946      0.2860000000      12.6145047958      0.8217558823      0.0000000000
0.7946716303         9773.8462962255      0.2880000000      12.6158934865      0.8342915260      0.0000000000
0.8059863168         9127.3421317923      0.2900000000      12.6174935914      0.8468627359      0.0000000000
0.8173121400         8529.5596793984      0.2920000000      12.6192862715      0.8594666842      0.0000000000
0.8286464593         7976.4504793473      0.2940000000      12.6212539105      0.8721005570      0.0000000000
0.8399866602         7464.3274352483      0.2960000000      12.6233794197      0.8847615528      0.0000000000
0.8513301632         6989.8362510105      0.2980000000      12.6256471062      0.8974468926      0.0000000000
0.8626744143         6549.9167822845      0.3000000000      12.6280413496      0.9101538085      0.0000000000
0.8740169006         6141.7811181608      0.3020000000      12.6305479262      0.9228795618      0.0000000000
0.8853551418         5762.8842281752      0.3040000000      12.6331530305      0.9356214338      0.0000000000
0.8966866991         5410.9037345657      0.3060000000      12.6358438984      0.9483767357      0.0000000000
0.9080091693         5083.7164050961      0.3080000000      12.6386080860      0.9611428025      0.0000000000
0.9193201898         4779.3807995937      0.3100000000      12.6414337669      0.9739169982      0.0000000000
0.9306174443         4496.1225099662      0.3120000000      12.6443101151      0.9866967231      0.0000000000
0.9418986570         4232.3161014489      0.3140000000      12.6472266397      0.9994794074      0.0000000000
0.9531615971         3986.4730013799      0.3160000000      12.6501734497      1.0122625166      0.0000000000
0.9644040790         3757.2284762532      0.3180000000      12.6531411011      1.0250435515      0.0000000000
0.9756239637         3543.3311892366      0.3200000000      12.6561207655      1.0378200510      0.0000000000
0.9868191616         3343.6329999360      0.3220000000      12.6591042186      1.0505895947      0.0000000000
0.9979876282         3157.0793475197      0.3240000000      12.6620834652      1.0633497994      0.0000000000
1.0091273710         2982.7013898818      0.3260000000      12.6650511825      1.0760983261      0.0000000000
1.0202364403         2819.6079397032      0.3280000000      12.6680000673      1.0888328711      0.0000000000
1.0313129471         2666.9804770494      0.3300000000      12.6709240724      1.1015511859      0.0000000000
1.0423550414         2524.0640782171      0.3320000000      12.6738165292      1.1142510532      0.0000000000
1.0533609302         2390.1642019898      0.3340000000      12.6766717561      1.1269303081      0.0000000000
1.0643288702         2264.6409387997      0.3360000000      12.6794844004      1.1395868298      0.0000000000
1.0752571674         2146.9038572713      0.3380000000      12.6822492014      1.1522185414      0.0000000000
1.0861441784         2036.4083153148      0.3400000000      12.6849612767      1.1648234124      0.0000000000
1.0969883129         1932.6517243412      0.3420000000      12.6876162411      1.1773994616      0.0000000000
1.1077880312         1835.1699306826      0.3440000000      12.6902099895      1.1899447551      0.0000000000
1.1185418422         1743.5337052942      0.3460000000      12.6927385132      1.2024574036      0.0000000000
1.1292483059         1657.3461698532      0.3480000000      12.6951981134      1.2149355666      0.0000000000
1.1399060348         1576.2404577626      0.3500000000      12.6975855707      1.2273774541      0.0000000000
1.1505136871         1499.8764739798      0.3520000000      12.6998974979      1.2397813189      0.0000000000
1.1610699754         1427.9398380605      0.3540000000      12.7021312758      1.2521454679      0.0000000000
1.1715736572         1360.1385598026      0.3560000000      12.7042839822      1.2644682506      0.0000000000
1.1820235432         1296.2026306809      0.3580000000      12.7063534886      1.2767480699      0.0000000000
1.1924184847         1235.8806488108      0.3600000000      12.7083369987      1.2889833674      0.0000000000
1.2027573895         1178.9402065490      0.3620000000      12.7102328892      1.3011726429      0.0000000000
1.2130392069         1125.1649165073      0.3640000000      12.7120391151      1.3133144365      0.0000000000
1.2232629358         1074.3540761461      0.3660000000      12.7137541966      1.3254073398      0.0000000000
1.2334276143         1026.3204983208      0.3680000000      12.7153760348      1.3374499826      0.0000000000
1.2435323352          980.8908726557      0.3700000000      12.7169037790      1.3494410526      0.0000000000
1.2535762284          937.9034060973      0.3720000000      12.7183359610      1.3613792748      0.0000000000
1.2635584699          897.2076360871      0.3740000000      12.7196715076      1.3732634225      0.0000000000
1.2734782801          858.6635168169      0.3760000000      12.7209096545      1.3850923158      0.0000000000
1.2833349159          822.1400930842      0.3780000000      12.7220491099      1.3968648122      0.0000000000
1.2931276838          787.5159258934      0.3800000000      12.7230897232      1.4085798235      0.0000000000
1.3028559236          754.6771933848      0.3820000000      12.7240305555      1.4202362957      0.0000000000
1.3125190180          723.5179160352      0.3840000000      12.7248712282      1.4318332216      0.0000000000
1.3221163888          693.9390942420      0.3860000000      12.7256114235      1.4433696364      0.0000000000
1.3316474943          665.8482253500      0.3880000000      12.7262508305      1.4548446148      0.0000000000
1.3411118295          639.1588067497      0.3900000000      12.7267891282      1.4662572718      0.0000000000
1.3505089289          613.7900970454      0.3920000000      12.7272264724      1.4776067662      0.0000000000
1.3598383603          589.6665165643      0.3940000000      12.7275628730      1.4888922941      0.0000000000
1.3690997229          566.7171210721      0.3960000000      12.7277980360      1.5001130859      0.0000000000
1.3782926560          544.8758237763      0.3980000000      12.7279325054      1.5112684182      0.0000000000
1.3874168249          524.0803878106      0.4000000000      12.7279660858      1.5223575965      0.0000000000
1.3964719339          504.2728120070      0.4020000000      12.7278994811      1.5333799709      0.0000000000
1.4054577135          485.3985065001      0.4040000000      12.7277328911      1.5443349220      0.0000000000
1.4143739253          467.4062722552      0.4060000000      12.7274666674      1.5552218661      0.0000000000
1.4232203603          450.2481057837      0.4080000000      12.7271012089      1.5660402540      0.0000000000
1.4319968395          433.8789867514      0.4100000000      12.7266371580      1.5767895714      0.0000000000
1.4407032105          418.2565720132      0.4120000000      12.7260750554      1.5874693359      0.0000000000
1.4493393468          403.3410682818      0.4140000000      12.7254154090      1.5980790960      0.0000000000
1.4579051494          389.0950943995      0.4160000000      12.7246588737      1.6086184326      0.0000000000
1.4664005445          375.4835229311      0.4180000000      12.7238062252      1.6190869578      0.0000000000
1.4748254825          362.4732899648      0.4200000000      12.7228581852      1.6294843128      0.0000000000
1.4831799359          350.0331956664      0.4220000000      12.7218153118      1.6398101660      0.0000000000
1.4914639032          338.1340210407      0.4240000000      12.7206786367      1.6500642178      0.0000000000
1.4996774021          326.7481210985      0.4260000000      12.7194488378      1.6602461932      0.0000000000
1.5078204735          315.8494908139      0.4280000000      12.7181268215      1.6703558456      0.0000000000
1.5158931774          305.4136076111      0.4300000000      12.7167133747      1.6803929530      0.0000000000
1.5238955957          295.4173763674      0.4320000000      12.7152095236      1.6903573212      0.0000000000
1.5318278266          285.8389424498      0.4340000000      12.7136159870      1.7002487773      0.0000000000
1.5396899896          276.6577416186      0.4360000000      12.7119338296      1.7100671758      0.0000000000
1.5474822204          267.8543486339      0.4380000000      12.7101640028      1.7198123928      0.0000000000
1.5552046720          259.4103911793      0.4400000000      12.7083074033      1.7294843268      0.0000000000
1.5628575138          251.3085225792      0.4420000000      12.7063650053      1.7390828986      0.0000000000
1.5704409310          243.5323551855      0.4440000000      12.7043377991      1.7486080504      0.0000000000
1.5779551247          236.0664044788      0.4460000000      12.7022268512      1.7580597456      0.0000000000
1.5854003097          228.8959997253      0.4480000000      12.7000331437      1.7674379668      0.0000000000
1.5927767143          222.0072616596      0.4500000000      12.6977576237      1.7767427155      0.0000000000
1.6000845816          215.3870776703      0.4520000000      12.6954014380      1.7859740136      0.0000000000
1.6073241657          209.0229965898      0.4540000000      12.6929654947      1.7951318990      0.0000000000
1.6144957344          202.9032564284      0.4560000000      12.6904509140      1.8042164291      0.0000000000
1.6215995664          197.0166991460      0.4580000000      12.6878587306      1.8132276773      0.0000000000
1.6286359513          191.3527323399      0.4600000000      12.6851899185      1.8221657328      0.0000000000
1.6356051902          185.9013486559      0.4620000000      12.6824456232      1.8310307021      0.0000000000
1.6425075930          180.6530170263      0.4640000000      12.6796267932      1.8398227054      0.0000000000
1.6493434804          175.5987265563      0.4660000000      12.6767345504      1.8485418786      0.0000000000
1.6561131813          170.7298993644      0.4680000000      12.6737698710      1.8571883712      0.0000000000
1.6628170341          166.0384107137      0.4700000000      12.6707338827      1.8657623472      0.0000000000
1.6694553848          161.5165319485      0.4720000000      12.6676275881      1.8742639828      0.0000000000
1.6760285872          157.1569189316      0.4740000000      12.6644520160      1.8826934672      0.0000000000
1.6825370025          152.9526030812      0.4760000000      12.6612082160      1.8910510017      0.0000000000
1.6889809993          148.8969548032      0.4780000000      12.6578972617      1.8993367999      0.0000000000
1.6953609518          144.9836594908      0.4800000000      12.6545201221      1.9075510854      0.0000000000
1.7016772411          141.2067283861      0.4820000000      12.6510778750      1.9156940937      0.0000000000
1.7079302535          137.5604386878      0.4840000000      12.6475714783      1.9237660699      0.0000000000
1.7141203813          134.0393692252      0.4860000000      12.6440020104      1.9317672697      0.0000000000
1.7202480214          130.6383428495      0.4880000000      12.6403704717      1.9396979578      0.0000000000
1.7263135756          127.3524308963      0.4900000000      12.6366778509      1.9475584081      0.0000000000
1.7323174498          124.1769373854      0.4920000000      12.6329251441      1.9553489031      0.0000000000
1.7382600543          121.1073875316      0.4940000000      12.6291133377      1.9630697337      0.0000000000
