# M(M_sol)                 Lambda          n_Bc(fm^-3)         R(km)            m_B(M_sol)        m_Bquar/M_B
0.1534317708     50427919.9609002173      0.0820000000      24.2590039676      0.1537130307      0.0000000000
0.1612434057     40184039.4382743090      0.0840000000      23.0810971654      0.1616395153      0.0000000000
0.1691732781     32404832.7033767514      0.0860000000      22.1119030731      0.1696944744      0.0000000000
0.1772100013     26394232.0568748377      0.0880000000      21.3027276763      0.1778665895      0.0000000000
0.1853439762     21685113.6352700479      0.0900000000      20.6187111932      0.1861463292      0.0000000000
0.1935670786     17952560.6097918488      0.0920000000      20.0342696339      0.1945256376      0.0000000000
0.2018724371     14964322.5605793986      0.0940000000      19.5302208481      0.2029977136      0.0000000000
0.2102542618     12550844.3503603768      0.0960000000      19.0919153068      0.2115568411      0.0000000000
0.2187077136     10586192.7298635822      0.0980000000      18.7079817503      0.2201982598      0.0000000000
0.2272287951      8975474.8489331175      0.1000000000      18.3694668637      0.2289180575      0.0000000000
0.2358142668      7646318.4602875179      0.1020000000      18.0692323167      0.2377130885      0.0000000000
0.2444615712      6542917.9371814998      0.1040000000      17.8015213323      0.2465808985      0.0000000000
0.2531687634      5621837.6909071757      0.1060000000      17.5616437408      0.2555196572      0.0000000000
0.2619344640      4848977.8633662807      0.1080000000      17.3457443287      0.2645281119      0.0000000000
0.2707577959      4197356.3084672792      0.1100000000      17.1506261431      0.2736055258      0.0000000000
0.2796383473      3645472.1769073275      0.1120000000      16.9736196752      0.2827516424      0.0000000000
0.2884260886      3183322.5468140529      0.1140000000      16.8150477545      0.2918118670      0.0000000000
0.2971026884      2794499.5119731645      0.1160000000      16.6725669224      0.3007669515      0.0000000000
0.3057347874      2462888.7775599803      0.1180000000      16.5429718695      0.3096854131      0.0000000000
0.3143428650      2178038.4046141091      0.1200000000      16.4243687160      0.3185882941      0.0000000000
0.3229393540      1931972.7769586761      0.1220000000      16.3153035551      0.3274883916      0.0000000000
0.3315335173      1718385.0361690319      0.1240000000      16.2145984929      0.3363952714      0.0000000000
0.3401330428      1532197.2229084398      0.1260000000      16.1212757012      0.3453169064      0.0000000000
0.3487447361      1369269.7663206307      0.1280000000      16.0345111313      0.3542603870      0.0000000000
0.3573748615      1226197.1650449329      0.1300000000      15.9536029754      0.3632322716      0.0000000000
0.3660293319      1100156.0437188651      0.1320000000      15.8779492362      0.3722387814      0.0000000000
0.3747138145       988790.0186763713      0.1340000000      15.8070296709      0.3812859086      0.0000000000
0.3834337976       890120.8079846208      0.1360000000      15.7403924120      0.3903794851      0.0000000000
0.3921946347       802479.1582151880      0.1380000000      15.6776436054      0.3995252279      0.0000000000
0.4010015594       724449.3993498525      0.1400000000      15.6184378501      0.4087287537      0.0000000000
0.4098597096       654825.2365600035      0.1420000000      15.5624714297      0.4179956046      0.0000000000
0.4187741296       592575.1445631885      0.1440000000      15.5094766183      0.4273312495      0.0000000000
0.4277497759       536813.0152001692      0.1460000000      15.4592164560      0.4367410906      0.0000000000
0.4367915147       486774.9589697740      0.1480000000      15.4114804965      0.4462304601      0.0000000000
0.4459041252       441800.2278400959      0.1500000000      15.3660817935      0.4558046242      0.0000000000
0.4550922914       401315.2596133460      0.1520000000      15.3228534953      0.4654687742      0.0000000000
0.4643605985       364820.6662098878      0.1540000000      15.2816464338      0.4752280228      0.0000000000
0.4737135292       331880.2833442717      0.1560000000      15.2423270141      0.4850873998      0.0000000000
0.4831554561       302112.0610663670      0.1580000000      15.2047754103      0.4950518450      0.0000000000
0.4926906343       275180.5054510812      0.1600000000      15.1688836960      0.5051261989      0.0000000000
0.5023231957       250790.1629376721      0.1620000000      15.1345547957      0.5153151981      0.0000000000
0.5120571476       228680.1601576390      0.1640000000      15.1017008228      0.5256234727      0.0000000000
0.5218963394       208619.6995494036      0.1660000000      15.0702424804      0.5360555112      0.0000000000
0.5318444913       190404.0298430476      0.1680000000      15.0401075908      0.5466156910      0.0000000000
0.5419051646       173851.1902191688      0.1700000000      15.0112307946      0.5573082456      0.0000000000
0.5520817563       158799.0832650960      0.1720000000      14.9835523852      0.5681372601      0.0000000000
0.5623774949       145103.0220617734      0.1740000000      14.9570179255      0.5791066650      0.0000000000
0.5727954284       132633.6496989561      0.1760000000      14.9315775044      0.5902202239      0.0000000000
0.5833384190       121275.1008620366      0.1780000000      14.9071852892      0.6014815263      0.0000000000
0.5940091365       110923.3998921449      0.1800000000      14.8837991185      0.6128939811      0.0000000000
0.6048100483       101485.1053328899      0.1820000000      14.8613799682      0.6244608043      0.0000000000
0.6157434133        92876.1207566724      0.1840000000      14.8398915901      0.6361850123      0.0000000000
0.6268112765        85020.6524195569      0.1860000000      14.8193004323      0.6480694147      0.0000000000
0.6380154597        77850.2772847500      0.1880000000      14.7995748832      0.6601166039      0.0000000000
0.6493575745        71303.1967587977      0.1900000000      14.7806854127      0.6723289675      0.0000000000
0.6608389481        65323.5053547888      0.1920000000      14.7626042477      0.6847086075      0.0000000000
0.6724607024        59860.5654497795      0.1940000000      14.7453049440      0.6972574243      0.0000000000
0.6842237671        54868.4525495654      0.1960000000      14.7287623685      0.7099771293      0.0000000000
0.6961287252        50305.5455461618      0.1980000000      14.7129526544      0.7228690769      0.0000000000
0.7081759739        46134.0227092587      0.2000000000      14.6978527663      0.7359344362      0.0000000000
0.7203656409        42319.5223589613      0.2020000000      14.6834405460      0.7491740993      0.0000000000
0.7326975983        38830.7983641112      0.2040000000      14.6696945794      0.7625886944      0.0000000000
0.7451714610        35639.4185184569      0.2060000000      14.6565940253      0.7761785822      0.0000000000
0.7577865864        32719.5003807826      0.2080000000      14.6441186118      0.7899438535      0.0000000000
0.7705420732        30047.4695870583      0.2100000000      14.6322484451      0.8038843253      0.0000000000
0.7834367645        27601.8401399897      0.2120000000      14.6209641215      0.8179995436      0.0000000000
0.7964692459        25363.0288297475      0.2140000000      14.6102464047      0.8322887769      0.0000000000
0.8096378514        23313.1758639505      0.2160000000      14.6000764561      0.8467510220      0.0000000000
0.8229406643        21435.9876620585      0.2180000000      14.5904356138      0.8613850022      0.0000000000
0.8363755207        19716.6006988949      0.2200000000      14.5813054180      0.8761891681      0.0000000000
0.8499400161        18141.4453580006      0.2220000000      14.5726676172      0.8911617032      0.0000000000
0.8636315079        16698.1387883834      0.2240000000      14.5645040546      0.9063005233      0.0000000000
0.8774471240        15375.3719266769      0.2260000000      14.5567967818      0.9216032840      0.0000000000
0.8913837663        14162.8222998986      0.2280000000      14.5495278886      0.9370673819      0.0000000000
0.9054381222        13051.0581504983      0.2300000000      14.5426796742      0.9526899644      0.0000000000
0.9196066684        12031.4686358514      0.2320000000      14.5362345581      0.9684679315      0.0000000000
0.9338856711        11096.1879991826      0.2340000000      14.5301750335      0.9843979337      0.0000000000
0.9482712361        10238.0284711809      0.2360000000      14.5244837801      1.0004764244      0.0000000000
0.9627592562         9450.4262081219      0.2380000000      14.5191436257      1.0166995996      0.0000000000
0.9773454626         8727.3833606346      0.2400000000      14.5141375053      1.0330634523      0.0000000000
0.9920254240         8063.4207555741      0.2420000000      14.5094485483      1.0495637688      0.0000000000
1.0067945595         7453.5308760456      0.2440000000      14.5050601096      1.0661961416      0.0000000000
1.0216481473         6893.1392047585      0.2460000000      14.5009557003      1.0829559756      0.0000000000
1.0365813366         6378.0645059553      0.2480000000      14.4971189533      1.0998385005      0.0000000000
1.0515891605         5904.4868402459      0.2500000000      14.4935338970      1.1168387822      0.0000000000
1.0666665460         5468.9147552593      0.2520000000      14.4901846957      1.1339517326      0.0000000000
1.0818083267         5068.1569688958      0.2540000000      14.4870558198      1.1511721217      0.0000000000
1.0970092538         4699.2971172228      0.2560000000      14.4841319850      1.1684945885      0.0000000000
1.1122640089         4359.6689473961      0.2580000000      14.4813981412      1.1859136533      0.0000000000
1.1275672152         4046.8355116017      0.2600000000      14.4788396835      1.2034237297      0.0000000000
1.1429134492         3758.5688351260      0.2620000000      14.4764422214      1.2210191356      0.0000000000
1.1582972528         3492.8312855922      0.2640000000      14.4741916896      1.2386941059      0.0000000000
1.1737131438         3247.7604607224      0.2660000000      14.4720744148      1.2564428038      0.0000000000
1.1891556280         3021.6523926898      0.2680000000      14.4700770649      1.2742593332      0.0000000000
1.2046192095         2812.9489149249      0.2700000000      14.4681866522      1.2921377495      0.0000000000
1.2200984018         2620.2244162571      0.2720000000      14.4663905871      1.3100720722      0.0000000000
1.2355877374         2442.1748163128      0.2740000000      14.4646766295      1.3280562947      0.0000000000
1.2510817791         2277.6064556850      0.2760000000      14.4630329451      1.3460843971      0.0000000000
1.2665751282         2125.4270609120      0.2780000000      14.4614481064      1.3641503561      0.0000000000
1.2820624343         1984.6366179025      0.2800000000      14.4599110666      1.3822481546      0.0000000000
1.2975384043         1854.3194512620      0.2820000000      14.4584111926      1.4003717943      0.0000000000
1.3129978104         1733.6371430675      0.2840000000      14.4569382181      1.4185153029      0.0000000000
1.3284354983         1621.8215650051      0.2860000000      14.4554823198      1.4366727453      0.0000000000
1.3438463946         1518.1689472826      0.2880000000      14.4540340787      1.4548382326      0.0000000000
1.3592255169         1422.0342228450      0.2900000000      14.4525844291      1.4730059339      0.0000000000
1.3745679667         1332.8261126040      0.2920000000      14.4511247860      1.4911700688      0.0000000000
1.3898689563         1250.0024946226      0.2940000000      14.4496468975      1.5093249400      0.0000000000
1.4051238004         1173.0660226903      0.2960000000      14.4481429224      1.5274649238      0.0000000000
1.4203279249         1101.5603410338      0.2980000000      14.4466054379      1.5455844823      0.0000000000
1.4354768706         1035.0667701980      0.3000000000      14.4450273726      1.5636781676      0.0000000000
1.4505662985          973.2007129132      0.3020000000      14.4434020298      1.5817406304      0.0000000000
1.4655919926          915.6091707855      0.3040000000      14.4417231262      1.5997666242      0.0000000000
1.4805498635          861.9677061563      0.3060000000      14.4399847097      1.6177510105      0.0000000000
1.4954359511          811.9782181216      0.3080000000      14.4381811950      1.6356887641      0.0000000000
1.5102464269          765.3666304605      0.3100000000      14.4363073466      1.6535749766      0.0000000000
1.5249775959          721.8809331077      0.3120000000      14.4343582828      1.6714048607      0.0000000000
1.5396258983          681.2891674306      0.3140000000      14.4323294174      1.6891737538      0.0000000000
1.5541879104          643.3779694277      0.3160000000      14.4302165402      1.7068771204      0.0000000000
1.5686603456          607.9508263429      0.3180000000      14.4280157129      1.7245105553      0.0000000000
1.5830400544          574.8267519269      0.3200000000      14.4257233127      1.7420697849      0.0000000000
1.5973240254          543.8389748502      0.3220000000      14.4233360444      1.7595506704      0.0000000000
1.6115093839          514.8337416008      0.3240000000      14.4208508316      1.7769492079      0.0000000000
1.6255933923          487.6693314239      0.3260000000      14.4182649449      1.7942615303      0.0000000000
1.6395734487          462.2149063204      0.3280000000      14.4155758609      1.8114839078      0.0000000000
1.6534470862          438.3497853470      0.3300000000      14.4127813623      1.8286127484      0.0000000000
1.6672119713          415.9625001962      0.3320000000      14.4098794152      1.8456445979      0.0000000000
1.6808659029          394.9500763430      0.3340000000      14.4068683037      1.8625761403      0.0000000000
1.6944068096          375.2173628070      0.3360000000      14.4037464503      1.8794041965      0.0000000000
1.7078327488          356.6764024996      0.3380000000      14.4005125650      1.8961257246      0.0000000000
1.7211419038          339.2457889136      0.3400000000      14.3971655091      1.9127378184      0.0000000000
1.7343325821          322.8502453392      0.3420000000      14.3937043990      1.9292377064      0.0000000000
1.7474032123          307.4200480308      0.3440000000      14.3901284557      1.9456227503      0.0000000000
1.7603523425          292.8906452918      0.3460000000      14.3864371794      1.9618904441      0.0000000000
1.7731786367          279.2021889885      0.3480000000      14.3826301395      1.9780384116      0.0000000000
1.7858808726          266.2992298687      0.3500000000      14.3787071532      1.9940644052      0.0000000000
1.7984579391          254.1302998104      0.3520000000      14.3746681311      2.0099663040      0.0000000000
1.8109088318          242.6476964315      0.3540000000      14.3705131640      2.0257421100      0.0000000000
1.8232326521          231.8070937550      0.3560000000      14.3662424430      2.0413899482      0.0000000000
1.8354286031          221.5673396205      0.3580000000      14.3618563292      2.0569080630      0.0000000000
1.8474959865          211.8902065441      0.3600000000      14.3573552789      2.0722948158      0.0000000000
1.8594341997          202.7401355826      0.3620000000      14.3527398325      2.0875486824      0.0000000000
1.8712427330          194.0840709541      0.3640000000      14.3480107141      2.1026682509      0.0000000000
1.8829211660          185.8912644319      0.3660000000      14.3431686744      2.1176522182      0.0000000000
1.8944691646          178.1330701372      0.3680000000      14.3382145906      2.1324993881      0.0000000000
1.9058864784          170.7828273824      0.3700000000      14.3331494264      2.1472086680      0.0000000000
1.9171729370          163.8156917720      0.3720000000      14.3279742156      2.1617790661      0.0000000000
1.9283284472          157.2085065832      0.3740000000      14.3226900620      2.1762096890      0.0000000000
1.9393529903          150.9396591695      0.3760000000      14.3172981633      2.1904997385      0.0000000000
1.9502466183          144.9890074750      0.3780000000      14.3117997539      2.2046485085      0.0000000000
1.9610094519          139.3377374246      0.3800000000      14.3061961244      2.2186553830      0.0000000000
1.9716416769          133.9682853832      0.3820000000      14.3004886634      2.2325198324      0.0000000000
1.9821435416          128.8642316400      0.3840000000      14.2946787337      2.2462414110      0.0000000000
1.9925153541          124.0102387878      0.3860000000      14.2887678166      2.2598197543      0.0000000000
2.0027574793          119.3919629456      0.3880000000      14.2827573872      2.2732545759      0.0000000000
2.0128703364          114.9959747514      0.3900000000      14.2766489702      2.2865456650      0.0000000000
2.0228543962          110.8097179254      0.3920000000      14.2704441197      2.2996928835      0.0000000000
2.0327101785          106.8214255828      0.3940000000      14.2641444247      2.3126961633      0.0000000000
2.0424382495          103.0200770979      0.3960000000      14.2577514910      2.3255555039      0.0000000000
2.0520392197           99.3953452426      0.3980000000      14.2512669507      2.3382709693      0.0000000000
2.0615137411           95.9375443009      0.4000000000      14.2446924499      2.3508426858      0.0000000000
2.0708625050           92.6375936461      0.4020000000      14.2380296569      2.3632708392      0.0000000000
2.0800862401           89.4869608475      0.4040000000      14.2312802275      2.3755556726      0.0000000000
2.0891857098           86.4776431644      0.4060000000      14.2244458831      2.3876974838      0.0000000000
2.0981617103           83.6021265322      0.4080000000      14.2175282914      2.3996966226      0.0000000000
2.1070150687           80.8533433461      0.4100000000      14.2105291585      2.4115534892      0.0000000000
2.1157466410           78.2246521362      0.4120000000      14.2034501885      2.4232685312      0.0000000000
2.1243573098           75.7098089165      0.4140000000      14.1962930831      2.4348422419      0.0000000000
2.1328479828           73.3029348308      0.4160000000      14.1890595333      2.4462751576      0.0000000000
2.1412195913           70.9984983582      0.4180000000      14.1817512589      2.4575678562      0.0000000000
2.1494730877           68.7912927224      0.4200000000      14.1743699401      2.4687209544      0.0000000000
2.1576094444           66.6764102775      0.4220000000      14.1669172618      2.4797351062      0.0000000000
2.1656296525           64.6492260354      0.4240000000      14.1593949049      2.4906110008      0.0000000000
2.1735347192           62.7053820893      0.4260000000      14.1518045440      2.5013493607      0.0000000000
2.1813256675           60.8407659698      0.4280000000      14.1441478462      2.5119509399      0.0000000000
2.1890035340           59.0514962683      0.4300000000      14.1364264537      2.5224165219      0.0000000000
2.1965693681           57.3339127105      0.4320000000      14.1286420056      2.5327469185      0.0000000000
2.2040242303           55.6845562004      0.4340000000      14.1207961286      2.5429429679      0.0000000000
2.2113691911           54.1001579037      0.4360000000      14.1128904280      2.5530055329      0.0000000000
2.2186053300           52.5776321490      0.4380000000      14.1049264932      2.5629354992      0.0000000000
2.2257337337           51.1140598311      0.4400000000      14.0969059065      2.5727337747      0.0000000000
