# M(M_sol)                 Lambda          n_Bc(fm^-3)         R(km)            m_B(M_sol)        m_Bquar/M_B
0.1569548350     47173864.5757419392      0.0800000000      23.8933173319      0.1572853934      0.0000000000
0.1650058628     37799041.4149957821      0.0820000000      22.7974037207      0.1654595601      0.0000000000
0.1731103776     30675945.4925860353      0.0840000000      21.8986746787      0.1736969563      0.0000000000
0.1812601897     25162163.0032004267      0.0860000000      21.1498036777      0.1819892894      0.0000000000
0.1894490299     20829264.4425724782      0.0880000000      20.5173071593      0.1903302079      0.0000000000
0.1976721936     17381005.5993974283      0.0900000000      19.9768509170      0.1987149445      0.0000000000
0.2059262794     14606757.6959884111      0.0920000000      19.5103402006      0.2071400549      0.0000000000
0.2142089964     12353395.4841570910      0.0940000000      19.1040522248      0.2156032265      0.0000000000
0.2225190159     10507538.9133268278      0.0960000000      18.7474003978      0.2241031308      0.0000000000
0.2308558421      8983929.2564714532      0.0980000000      18.4320933306      0.2326392945      0.0000000000
0.2392197139      7717592.6911992282      0.1000000000      18.1515509339      0.2412120026      0.0000000000
0.2476115161      6658428.9968244992      0.1020000000      17.9004887972      0.2498222101      0.0000000000
0.2560327053      5767400.8097434463      0.1040000000      17.6746181992      0.2584714687      0.0000000000
0.2644852396      5013810.0718955984      0.1060000000      17.4704253340      0.2671618569      0.0000000000
0.2729715268      4373303.7436616533      0.1080000000      17.2850064718      0.2758959284      0.0000000000
0.2814943650      3826414.3734554723      0.1100000000      17.1159428389      0.2846766537      0.0000000000
0.2900568961      3357466.8009655047      0.1120000000      16.9612057546      0.2935073736      0.0000000000
0.2985171018      2960072.8345895768      0.1140000000      16.8213751782      0.3022415081      0.0000000000
0.3068576739      2622016.5866894587      0.1160000000      16.6947030983      0.3108608310      0.0000000000
0.3151481761      2330536.3037807248      0.1180000000      16.5785199223      0.3194369625      0.0000000000
0.3234118461      2077478.4190200923      0.1200000000      16.4712958376      0.3279938198      0.0000000000
0.3316637746      1856601.2651441719      0.1220000000      16.3718641249      0.3365469696      0.0000000000
0.3399157752      1662940.0589371056      0.1240000000      16.2792820985      0.3451086401      0.0000000000
0.3481779783      1492468.3553812590      0.1260000000      16.1927679248      0.3536893605      0.0000000000
0.3564595277      1341878.9524766055      0.1280000000      16.1116633293      0.3622986768      0.0000000000
0.3647689234      1208429.4118932944      0.1300000000      16.0354081063      0.3709455040      0.0000000000
0.3731142154      1089827.4200018540      0.1320000000      15.9635217789      0.3796383245      0.0000000000
0.3815031186       984144.3356336365      0.1340000000      15.8955897724      0.3883853065      0.0000000000
0.3899430787       889747.8069963899      0.1360000000      15.8312530312      0.3971943711      0.0000000000
0.3984413186       805248.3556368332      0.1380000000      15.7701984843      0.4060732397      0.0000000000
0.4070048631       729457.8479009197      0.1400000000      15.7121527239      0.4150294601      0.0000000000
0.4156405580       661355.3788623809      0.1420000000      15.6568760140      0.4240704251      0.0000000000
0.4243550800       600060.0667856362      0.1440000000      15.6041575933      0.4332033830      0.0000000000
0.4331549440       544808.7191153370      0.1460000000      15.5538118459      0.4424354452      0.0000000000
0.4420465014       494937.6344875747      0.1480000000      15.5056747228      0.4517735841      0.0000000000
0.4510359406       449867.5102158806      0.1500000000      15.4596010127      0.4612246336      0.0000000000
0.4601292853       409090.9827256280      0.1520000000      15.4154619670      0.4707952875      0.0000000000
0.4693323889       372162.2882704420      0.1540000000      15.3731432857      0.4804920934      0.0000000000
0.4786509304       338688.4200492867      0.1560000000      15.3325429655      0.4903214480      0.0000000000
0.4880904067       308322.0914575064      0.1580000000      15.2935703749      0.5002895897      0.0000000000
0.4976561257       280755.3891225604      0.1600000000      15.2561444209      0.5104025907      0.0000000000
0.5073531965       255714.6214571375      0.1620000000      15.2201923582      0.5206663466      0.0000000000
0.5171865302       232955.9389536951      0.1640000000      15.1856489856      0.5310865770      0.0000000000
0.5271608032       212261.5871934386      0.1660000000      15.1524557394      0.5416687866      0.0000000000
0.5372804870       193436.5952069558      0.1680000000      15.1205596630      0.5524182964      0.0000000000
0.5475498125       176306.0806299862      0.1700000000      15.0899127091      0.5633402053      0.0000000000
0.5579727681       160712.9074621223      0.1720000000      15.0604713687      0.5744393875      0.0000000000
0.5685530883       146515.5559568396      0.1740000000      15.0321957281      0.5857204804      0.0000000000
0.5792942468       133586.4347062485      0.1760000000      15.0050493738      0.5971878754      0.0000000000
0.5901994444       121810.2898619148      0.1780000000      14.9789985768      0.6088457051      0.0000000000
0.6012716020       111082.8459767639      0.1800000000      14.9540119668      0.6206978348      0.0000000000
0.6125133505       101309.7241801141      0.1820000000      14.9300603812      0.6327478500      0.0000000000
0.6239270243        92405.3129558221      0.1840000000      14.9071163037      0.6449990486      0.0000000000
0.6355146519        84291.9348817632      0.1860000000      14.8851536925      0.6574544296      0.0000000000
0.6472779503        76899.0179287406      0.1880000000      14.8641476891      0.6701166853      0.0000000000
0.6592183350        70162.4024159877      0.1900000000      14.8440743297      0.6829882104      0.0000000000
0.6713368454        64023.7467088326      0.1920000000      14.8249106053      0.6960710198      0.0000000000
0.6836342431        58429.9240770417      0.1940000000      14.8066339207      0.7093668527      0.0000000000
0.6961109406        53332.5610062427      0.1960000000      14.7892222613      0.7228770932      0.0000000000
0.7087670146        48687.5853848663      0.1980000000      14.7726538488      0.7366027830      0.0000000000
0.7216022027        44454.8379539479      0.2000000000      14.7569071609      0.7505446146      0.0000000000
0.7346159043        40597.7124866008      0.2020000000      14.7419607324      0.7647029302      0.0000000000
0.7478071800        37082.8353677860      0.2040000000      14.7277932814      0.7790777183      0.0000000000
0.7611747503        33879.7826665712      0.2060000000      14.7143833483      0.7936686089      0.0000000000
0.7747170022        30960.8025516894      0.2080000000      14.7017094853      0.8084748783      0.0000000000
0.7884319877        28300.6049012349      0.2100000000      14.6897501750      0.8234954441      0.0000000000
0.8023174310        25876.1236188808      0.2120000000      14.6784837508      0.8387288697      0.0000000000
0.8163707322        23666.3277002074      0.2140000000      14.6678883929      0.8541733653      0.0000000000
0.8305889739        21652.0501813043      0.2160000000      14.6579421501      0.8698267915      0.0000000000
0.8449689289        19815.8180653444      0.2180000000      14.6486230020      0.8856866646      0.0000000000
0.8595070674        18141.7075390883      0.2200000000      14.6399086921      0.9017501605      0.0000000000
0.8741995678        16615.2076645188      0.2220000000      14.6317769610      0.9180141239      0.0000000000
0.8890423245        15223.1015865956      0.2240000000      14.6242054127      0.9344750719      0.0000000000
0.9040309601        13953.3463539646      0.2260000000      14.6171715188      0.9511292056      0.0000000000
0.9191608380        12794.9786830307      0.2280000000      14.6106529039      0.9679724194      0.0000000000
0.9344270726        11738.0125548440      0.2300000000      14.6046270192      0.9850003086      0.0000000000
0.9498245440        10773.3588927282      0.2320000000      14.5990714388      1.0022081831      0.0000000000
0.9653478997         9892.7449686388      0.2340000000      14.5939637348      1.0195910651      0.0000000000
0.9809916134         9088.6393071583      0.2360000000      14.5892816882      1.0371437516      0.0000000000
0.9967499337         8354.1919347496      0.2380000000      14.5850031125      1.0548607537      0.0000000000
1.0126169430         7683.1687529411      0.2400000000      14.5811060973      1.0727363595      0.0000000000
1.0285865607         7069.9006486344      0.2420000000      14.5775688532      1.0907646341      0.0000000000
1.0446525618         6509.2284563481      0.2440000000      14.5743699053      1.1089394385      0.0000000000
1.0608085893         5996.4624475545      0.2460000000      14.5714880844      1.1272544394      0.0000000000
1.0770481720         5527.3364287175      0.2480000000      14.5689024411      1.1457031277      0.0000000000
1.0933647406         5097.9705201779      0.2500000000      14.5665924760      1.1642788343      0.0000000000
1.1097516421         4704.8374188271      0.2520000000      14.5645380613      1.1829747431      0.0000000000
1.1262021571         4344.7289008455      0.2540000000      14.5627194026      1.2017839092      0.0000000000
1.1427095141         4014.7282509977      0.2560000000      14.5611171977      1.2206992732      0.0000000000
1.1592669066         3712.1824921503      0.2580000000      14.5597126040      1.2397136788      0.0000000000
1.1758675064         3434.6795167539      0.2600000000      14.5584872647      1.2588198865      0.0000000000
1.1925044792         3180.0251205256      0.2620000000      14.5574232541      1.2780105900      0.0000000000
1.2091709991         2946.2238216117      0.2640000000      14.5565032133      1.2972784317      0.0000000000
1.2258602620         2731.4607363896      0.2660000000      14.5557103599      1.3166160176      0.0000000000
1.2425654992         2534.0841033579      0.2680000000      14.5550283389      1.3360159314      0.0000000000
1.2592799912         2352.5914656678      0.2700000000      14.5544414670      1.3554707506      0.0000000000
1.2759970783         2185.6153208584      0.2720000000      14.5539345112      1.3749730584      0.0000000000
1.2927101740         2031.9110018342      0.2740000000      14.5534929018      1.3945154589      0.0000000000
1.3094127755         1890.3452714912      0.2760000000      14.5531025702      1.4140905893      0.0000000000
1.3260984743         1759.8861741607      0.2780000000      14.5527500631      1.4336911332      0.0000000000
1.3427609656         1639.5938120045      0.2800000000      14.5524224734      1.4533098309      0.0000000000
1.3593940589         1528.6118019876      0.2820000000      14.5521074480      1.4729394938      0.0000000000
1.3759916856         1426.1597151380      0.2840000000      14.5517932734      1.4925730129      0.0000000000
1.3925479068         1331.5260682586      0.2860000000      14.5514687272      1.5122033700      0.0000000000
1.4090569213         1244.0620995936      0.2880000000      14.5511231696      1.5318236475      0.0000000000
1.4255130717         1163.1760436499      0.2900000000      14.5507465250      1.5514270373      0.0000000000
1.4419108506         1088.3277966236      0.2920000000      14.5503292347      1.5710068496      0.0000000000
1.4582449056         1019.0244528117      0.2940000000      14.5498623067      1.5905565202      0.0000000000
1.4745100445          954.8157716517      0.2960000000      14.5493372245      1.6100696184      0.0000000000
1.4907012414          895.2906863612      0.2980000000      14.5487460296      1.6295398564      0.0000000000
1.5068136295          840.0733087384      0.3000000000      14.5480812320      1.6489610821      0.0000000000
1.5228425209          788.8200875231      0.3020000000      14.5473358371      1.6683273053      0.0000000000
1.5387833975          741.2168111567      0.3040000000      14.5465033512      1.6876326883      0.0000000000
1.5546319151          696.9759324310      0.3060000000      14.5455776958      1.7068715537      0.0000000000
1.5703839054          655.8342641094      0.3080000000      14.5445532499      1.7260383883      0.0000000000
1.5860353763          617.5507765313      0.3100000000      14.5434248798      1.7451278462      0.0000000000
1.6015825120          581.9045797577      0.3120000000      14.5421877822      1.7641347513      0.0000000000
1.6170216733          548.6933024825      0.3140000000      14.5408376316      1.7830540992      0.0000000000
1.6323493968          517.7312401745      0.3160000000      14.5393704291      1.8018810597      0.0000000000
1.6475623934          488.8481115173      0.3180000000      14.5377825888      1.8206109767      0.0000000000
1.6626575480          461.8875444524      0.3200000000      14.5360708837      1.8392393702      0.0000000000
1.6776319168          436.7059487139      0.3220000000      14.5342324151      1.8577619357      0.0000000000
1.6924827256          413.1713803959      0.3240000000      14.5322646245      1.8761745445      0.0000000000
1.7072073677          391.1625546445      0.3260000000      14.5301652546      1.8944732432      0.0000000000
1.7218034011          370.5679116575      0.3280000000      14.5279323614      1.9126542526      0.0000000000
1.7362685458          351.2847963948      0.3300000000      14.5255642963      1.9307139669      0.0000000000
1.7506006803          333.2187039556      0.3320000000      14.5230596599      1.9486489519      0.0000000000
1.7647978390          316.2825598276      0.3340000000      14.5204173120      1.9664559437      0.0000000000
1.7788582085          300.3961355782      0.3360000000      14.5176363766      1.9841318461      0.0000000000
1.7927801238          285.4854435369      0.3380000000      14.5147162101      2.0016737285      0.0000000000
1.8065620649          271.4822258809      0.3400000000      14.5116563733      2.0190788240      0.0000000000
1.8202026532          258.3234637750      0.3420000000      14.5084566385      2.0363445260      0.0000000000
1.8337006469          245.9509759715      0.3440000000      14.5051169931      2.0534683857      0.0000000000
1.8470549375          234.3109997074      0.3460000000      14.5016375861      2.0704481086      0.0000000000
1.8602645456          223.3538147976      0.3480000000      14.4980187568      2.0872815520      0.0000000000
1.8733286165          213.0334470181      0.3500000000      14.4942609893      2.1039667207      0.0000000000
1.8862464179          203.3073389654      0.3520000000      14.4903649354      2.1205017661      0.0000000000
1.8990173327          194.1360797502      0.3540000000      14.4863313794      2.1368849792      0.0000000000
1.9116408570          185.4831739500      0.3560000000      14.4821612484      2.1531147888      0.0000000000
1.9241165953          177.3147785384      0.3580000000      14.4778555764      2.1691897580      0.0000000000
1.9364442567          169.5995144695      0.3600000000      14.4734155345      2.1851085803      0.0000000000
1.9486236503          162.3082559346      0.3620000000      14.4688423681      2.2008700756      0.0000000000
1.9606546825          155.4139719342      0.3640000000      14.4641374611      2.2164731876      0.0000000000
1.9725373496          148.8915513976      0.3660000000      14.4593022490      2.2319169764      0.0000000000
1.9842717385          142.7176561491      0.3680000000      14.4543382754      2.2472006198      0.0000000000
1.9958580194          136.8705830206      0.3700000000      14.4492471376      2.2623234066      0.0000000000
2.0072964437          131.3301511314      0.3720000000      14.4440305237      2.2772847327      0.0000000000
2.0185873389          126.0775636653      0.3740000000      14.4386901711      2.2920840983      0.0000000000
2.0297311061          121.0953221510      0.3760000000      14.4332278787      2.3067211038      0.0000000000
2.0407282159          116.3671257817      0.3780000000      14.4276454937      2.3211954460      0.0000000000
2.0515792047          111.8777709178      0.3800000000      14.4219448916      2.3355069147      0.0000000000
2.0622846716          107.6130839613      0.3820000000      14.4161280261      2.3496553888      0.0000000000
2.0728452748          103.5598348091      0.3840000000      14.4101968468      2.3636408330      0.0000000000
2.0832617287           99.7056727367      0.3860000000      14.4041533524      2.3774632945      0.0000000000
2.0935348003           96.0390653200      0.3880000000      14.3979995682      2.3911228990      0.0000000000
2.1036653068           92.5492263064      0.3900000000      14.3917375320      2.4046198480      0.0000000000
2.1136541113           89.2260785406      0.3920000000      14.3853693071      2.4179544147      0.0000000000
2.1235021216           86.0601915432      0.3940000000      14.3788969644      2.4311269416      0.0000000000
2.1332102863           83.0427399040      0.3960000000      14.3723225913      2.4441378371      0.0000000000
2.1427795923           80.1654590996      0.3980000000      14.3656482840      2.4569875720      0.0000000000
2.1522110626           77.4206068492      0.4000000000      14.3588761267      2.4696766771      0.0000000000
2.1615057530           74.8009315775      0.4020000000      14.3520082185      2.4822057397      0.0000000000
2.1706647508           72.2996259697      0.4040000000      14.3450466696      2.4945754013      0.0000000000
2.1796891714           69.9103084363      0.4060000000      14.3379935582      2.5067863545      0.0000000000
2.1885801567           67.6269881860      0.4080000000      14.3308509750      2.5188393403      0.0000000000
2.1973388727           65.4440411220      0.4100000000      14.3236209977      2.5307351459      0.0000000000
2.2059665076           63.3561795271      0.4120000000      14.3163056976      2.5424746015      0.0000000000
2.2144642698           61.3584390820      0.4140000000      14.3089071370      2.5540585786      0.0000000000
2.2228333855           59.4461511720      0.4160000000      14.3014273464      2.5654879865      0.0000000000
2.2310750980           57.6149183538      0.4180000000      14.2938683629      2.5767637717      0.0000000000
2.2391906647           55.8606089846      0.4200000000      14.2862321895      2.5878869139      0.0000000000
2.2471813564           54.1793300395      0.4220000000      14.2785208288      2.5988584252      0.0000000000
2.2550484552           52.5674145222      0.4240000000      14.2707362687      2.6096793473      0.0000000000
2.2627932531           51.0214068361      0.4260000000      14.2628804255      2.6203507495      0.0000000000
2.2704170508           49.5380485809      0.4280000000      14.2549552787      2.6308737275      0.0000000000
2.2779211560           48.1142690757      0.4300000000      14.2469627079      2.6412494005      0.0000000000
2.2853068821           46.7471682821      0.4320000000      14.2389046181      2.6514789102      0.0000000000
2.2925755474           45.4340094507      0.4340000000      14.2307828713      2.6615634189      0.0000000000
2.2997284733           44.1722089174      0.4360000000      14.2225993161      2.6715041074      0.0000000000
2.3067669838           42.9593242635      0.4380000000      14.2143557519      2.6813021744      0.0000000000
