# M(M_sol)                 Lambda          n_Bc(fm^-3)         R(km)            m_B(M_sol)        m_Bquar/M_B
0.1538347100     15716639.3262479436      0.1550000000      18.2334502448      0.1540456522      0.0000000000
0.1590778845     13184356.0132883135      0.1570000000      17.6756131773      0.1593639669      0.0000000000
0.1645670811     11072634.3141468447      0.1590000000      17.1714555794      0.1649367048      0.0000000000
0.1703048303      9309990.7189966161      0.1610000000      16.7152554235      0.1707670699      0.0000000000
0.1762935025      7837399.8494477300      0.1630000000      16.3019913849      0.1768581371      0.0000000000
0.1825353034      6606023.2450100901      0.1650000000      15.9272491983      0.1832128471      0.0000000000
0.1890322832      5575384.3688862566      0.1670000000      15.5871370175      0.1898340158      0.0000000000
0.1957862796      4711914.0159034887      0.1690000000      15.2782184785      0.1967242761      0.0000000000
0.2027989922      3987749.1244973163      0.1710000000      14.9974543171      0.2038861530      0.0000000000
0.2100718326      3379751.0112135638      0.1730000000      14.7421449400      0.2113219103      0.0000000000
0.2176061104      2868699.1470828452      0.1750000000      14.5098965425      0.2190337397      0.0000000000
0.2254028337      2438616.5125434482      0.1770000000      14.2985712829      0.2270235562      0.0000000000
0.2334627747      2076218.6886055954      0.1790000000      14.1062598910      0.2352930639      0.0000000000
0.2417865553      1770456.9754740156      0.1810000000      13.9312618358      0.2438438433      0.0000000000
0.2503744293      1512131.6118945179      0.1830000000      13.7720433218      0.2526771256      0.0000000000
0.2592264883      1293581.7802931226      0.1850000000      13.6272337136      0.2617940037      0.0000000000
0.2683425126      1108421.0552741827      0.1870000000      13.4955960538      0.2711952764      0.0000000000
0.2777220142       951321.4714403399      0.1890000000      13.3760147256      0.2808814917      0.0000000000
0.2873642428       817834.5507646590      0.1910000000      13.2674827646      0.2908529505      0.0000000000
0.2972681632       704242.3839850888      0.1930000000      13.1690885478      0.3011096817      0.0000000000
0.3074324390       607434.1299981218      0.1950000000      13.0800037232      0.3116514227      0.0000000000
0.3178554554       524804.4461358392      0.1970000000      12.9994764278      0.3224776409      0.0000000000
0.3285353167       454168.8660977993      0.1990000000      12.9268230709      0.3335875285      0.0000000000
0.3394698235       393693.4334864512      0.2010000000      12.8614191971      0.3449799767      0.0000000000
0.3506564924       341836.7799072113      0.2030000000      12.8026950193      0.3566535926      0.0000000000
0.3620925429       297301.7383648028      0.2050000000      12.7501286414      0.3686066836      0.0000000000
0.3737749279       258995.3350025275      0.2070000000      12.7032432716      0.3808372859      0.0000000000
0.3857003003       225995.4076227176      0.2090000000      12.6616004058      0.3933431263      0.0000000000
0.3978650384       197522.8224973150      0.2110000000      12.6247969746      0.4061216463      0.0000000000
0.4102652525       172918.5322994170      0.2130000000      12.5924627379      0.4191700057      0.0000000000
0.4228967828       151624.2176796696      0.2150000000      12.5642561592      0.4324850766      0.0000000000
0.4357552065       133166.2787141271      0.2170000000      12.5398618632      0.4460634484      0.0000000000
0.4488358696       117142.4612394483      0.2190000000      12.5189901420      0.4599014578      0.0000000000
0.4621338358       103210.5284451033      0.2210000000      12.5013698280      0.4739951312      0.0000000000
0.4756439889        91079.0891142215      0.2230000000      12.4867542885      0.4883402903      0.0000000000
0.4893609375        80499.4867706353      0.2250000000      12.4749105464      0.5029324472      0.0000000000
0.5032791143        71259.4085544690      0.2270000000      12.4656255283      0.5177669071      0.0000000000
0.5173927382        63177.2318527058      0.2290000000      12.4587003344      0.5328387247      0.0000000000
0.5316958436        56097.4047256419      0.2310000000      12.4539504866      0.5481427320      0.0000000000
0.5461822745        49886.4980638849      0.2330000000      12.4512032845      0.5636735291      0.0000000000
0.5608457357        44429.9304592870      0.2350000000      12.4502999886      0.5794255360      0.0000000000
0.5756797554        39629.1423232811      0.2370000000      12.4510908232      0.5953929492      0.0000000000
0.5906777401        35399.2608520070      0.2390000000      12.4534374735      0.6115697987      0.0000000000
0.6058329629        31667.0851663399      0.2410000000      12.4572102964      0.6279499314      0.0000000000
0.6211385917        28369.4051410106      0.2430000000      12.4622889148      0.6445270405      0.0000000000
0.6365876969        25451.5572106510      0.2450000000      12.4685605398      0.6612946697      0.0000000000
0.6521732444        22866.2095812514      0.2470000000      12.4759196254      0.6782462046      0.0000000000
0.6678881567        20572.3246315364      0.2490000000      12.4842685546      0.6953749359      0.0000000000
0.6837252763        18534.2690279145      0.2510000000      12.4935147326      0.7126740180      0.0000000000
0.6996774204        16721.0698728190      0.2530000000      12.5035732824      0.7301365269      0.0000000000
0.7157373578        15105.7628290032      0.2550000000      12.5143635638      0.7477554327      0.0000000000
0.7318978449        13664.8454157947      0.2570000000      12.5258106848      0.7655236378      0.0000000000
0.7481516310        12377.8074175443      0.2590000000      12.5378447235      0.7834339815      0.0000000000
0.7644914693        11226.7246821708      0.2610000000      12.5504001401      0.8014792500      0.0000000000
0.7809101320        10195.9147140422      0.2630000000      12.5634158758      0.8196521931      0.0000000000
0.7974004146         9271.6382234360      0.2650000000      12.5768344137      0.8379455270      0.0000000000
0.8139551589         8441.8443275106      0.2670000000      12.5906026232      0.8563519603      0.0000000000
0.8305672555         7695.9485975788      0.2690000000      12.6046707478      0.8748641945      0.0000000000
0.8472296466         7024.6435255582      0.2710000000      12.6189915681      0.8934749283      0.0000000000
0.8639353558         6419.7363424426      0.2730000000      12.6335220709      0.9121768896      0.0000000000
0.8806774796         5874.0041607376      0.2750000000      12.6482215773      0.9309628267      0.0000000000
0.8974492010         5381.0730172149      0.2770000000      12.6630519893      0.9498255226      0.0000000000
0.9142437955         4935.3105119645      0.2790000000      12.6779775318      0.9687578029      0.0000000000
0.9310546631         4531.7361305009      0.2810000000      12.6929668126      0.9877525719      0.0000000000
0.9478752824         4165.9366107378      0.2830000000      12.7079876463      1.0068027612      0.0000000000
0.9646992726         3834.0003190173      0.2850000000      12.7230121989      1.0259014004      0.0000000000
0.9815203698         3532.4549845386      0.2870000000      12.7380140847      1.0450415913      0.0000000000
0.9983324384         3258.2147193137      0.2890000000      12.7529687098      1.0642165220      0.0000000000
1.0151294772         3008.5339696294      0.2910000000      12.7678532402      1.0834194741      0.0000000000
1.0319056198         2780.9674410582      0.2930000000      12.7826461561      1.1026438249      0.0000000000
1.0486551523         2573.3353657766      0.2950000000      12.7973284852      1.1218830687      0.0000000000
1.0653725027         2383.6916489019      0.2970000000      12.8118822178      1.1411308062      0.0000000000
1.0820522443         2210.2973788717      0.2990000000      12.8262903166      1.1603807498      0.0000000000
1.0986891103         2051.5972683478      0.3010000000      12.8405377671      1.1796267415      0.0000000000
1.1152779853         1906.1985600854      0.3030000000      12.8546104917      1.1988627455      0.0000000000
1.1318139110         1772.8529096692      0.3050000000      12.8684955421      1.2180828554      0.0000000000
1.1482920884         1650.4400038301      0.3070000000      12.8821811872      1.2372812999      0.0000000000
1.1647078771         1537.9537624496      0.3090000000      12.8956566875      1.2564524425      0.0000000000
1.1810567976         1434.4894856550      0.3110000000      12.9089122592      1.2755907865      0.0000000000
1.1973345311         1339.2329844674      0.3130000000      12.9219391620      1.2946909770      0.0000000000
1.2135369190         1251.4506993601      0.3150000000      12.9347293549      1.3137478015      0.0000000000
1.2296599627         1170.4811847335      0.3170000000      12.9472756893      1.3327561925      0.0000000000
1.2456998253         1095.7273409042      0.3190000000      12.9595718501      1.3517112306      0.0000000000
1.2616528265         1026.6497099988      0.3210000000      12.9716122133      1.3706081411      0.0000000000
1.2775154439          962.7603435638      0.3230000000      12.9833916331      1.3894422971      0.0000000000
1.2932843139          903.6176789409      0.3250000000      12.9949059873      1.4082092232      0.0000000000
1.3089562258          848.8214919962      0.3270000000      13.0061514610      1.4269045895      0.0000000000
1.3245281204          798.0089071562      0.3290000000      13.0171247182      1.4455242135      0.0000000000
1.3399970909          750.8505347217      0.3310000000      13.0278230687      1.4640640611      0.0000000000
1.3553603813          707.0471409292      0.3330000000      13.0382445817      1.4825202485      0.0000000000
1.3706153792          666.3265779378      0.3350000000      13.0483874650      1.5008890348      0.0000000000
1.3857596170          628.4412037104      0.3370000000      13.0582504902      1.5191668254      0.0000000000
1.4007907661          593.1654107547      0.3390000000      13.0678325633      1.5373501668      0.0000000000
1.4157066404          560.2935661950      0.3410000000      13.0771335086      1.5554357531      0.0000000000
1.4305051838          529.6379784407      0.3430000000      13.0861527914      1.5734204125      0.0000000000
1.4451844772          501.0273001298      0.3450000000      13.0948907901      1.5913011178      0.0000000000
1.4597427289          474.3049241580      0.3470000000      13.1033479712      1.6090749765      0.0000000000
1.4741782738          449.3275706633      0.3490000000      13.1115250664      1.6267392312      0.0000000000
1.4884895697          425.9641041509      0.3510000000      13.1194230942      1.6442912576      0.0000000000
1.5026751941          404.0943841753      0.3530000000      13.1270433371      1.6617285618      0.0000000000
1.5167338412          383.6082365588      0.3550000000      13.1343872488      1.6790487781      0.0000000000
1.5306643184          364.4045727745      0.3570000000      13.1414565192      1.6962496665      0.0000000000
1.5444655440          346.3905866849      0.3590000000      13.1482531826      1.7133291120      0.0000000000
1.5581365399          329.4809527870      0.3610000000      13.1547790419      1.7302851157      0.0000000000
1.5716764357          313.5972354247      0.3630000000      13.1610366273      1.7471158032      0.0000000000
1.5850844542          298.6672013239      0.3650000000      13.1670277654      1.7638194063      0.0000000000
1.5983599240          284.6243674922      0.3670000000      13.1727555858      1.7803942813      0.0000000000
1.6115022594          271.4074246869      0.3690000000      13.1782223578      1.7968388846      0.0000000000
1.6245109688          258.9598303725      0.3710000000      13.1834309599      1.8131517848      0.0000000000
1.6373856456          247.2294077109      0.3730000000      13.1883841763      1.8293316523      0.0000000000
1.6501259673          236.1679331441      0.3750000000      13.1930848805      1.8453772599      0.0000000000
1.6627316935          225.7308700432      0.3770000000      13.1975362675      1.8612874806      0.0000000000
1.6752026585          215.8769916956      0.3790000000      13.2017412280      1.8770612801      0.0000000000
1.6875387742          206.5681681786      0.3810000000      13.2057031523      1.8926977215      0.0000000000
1.6997400198          197.7690604119      0.3830000000      13.2094249169      1.9081959525      0.0000000000
1.7118064475          189.4469371891      0.3850000000      13.2129100911      1.9235552147      0.0000000000
1.7237381715          181.5714274706      0.3870000000      13.2161617894      1.9387748296      0.0000000000
1.7355353713          174.1143573595      0.3890000000      13.2191835046      1.9538542044      0.0000000000
1.7471982832          167.0495611050      0.3910000000      13.2219783449      1.9687928215      0.0000000000
1.7587272047          160.3527278763      0.3930000000      13.2245500007      1.9835902454      0.0000000000
1.7701224842          154.0012573222      0.3950000000      13.2269016248      1.9982461097      0.0000000000
1.7813845258          147.9741143570      0.3970000000      13.2290369082      2.0127601243      0.0000000000
1.7925137794          142.2517336382      0.3990000000      13.2309590639      2.0271320634      0.0000000000
1.8035107443          136.8158782364      0.4010000000      13.2326715907      2.0413617708      0.0000000000
1.8143759635          131.6495557739      0.4030000000      13.2341778720      2.0554491528      0.0000000000
1.8251100237          126.7369238009      0.4050000000      13.2354814876      2.0693941793      0.0000000000
1.8357135490          122.0631967664      0.4070000000      13.2365855771      2.0831968756      0.0000000000
1.8461872063          117.6145732561      0.4090000000      13.2374940176      2.0968573307      0.0000000000
1.8565316920          113.3781562768      0.4110000000      13.2382097262      2.1103756794      0.0000000000
1.8667477418          109.3418989030      0.4130000000      13.2387364094      2.1237521165      0.0000000000
1.8768361210          105.4945267491      0.4150000000      13.2390774076      2.1369868839      0.0000000000
1.8867976229          101.8255015208      0.4170000000      13.2392357892      2.1500802693      0.0000000000
1.8966330742           98.3249463817      0.4190000000      13.2392153960      2.1630326134      0.0000000000
1.9063433209           94.9836186861      0.4210000000      13.2390189678      2.1758442916      0.0000000000
1.9159292395           91.7928511480      0.4230000000      13.2386501386      2.1885157296      0.0000000000
1.9253917266           88.7445203925      0.4250000000      13.2381120816      2.2010473891      0.0000000000
1.9347317002           85.8310012073      0.4270000000      13.2374079615      2.2134397705      0.0000000000
1.9439500986           83.0451431910      0.4290000000      13.2365410008      2.2256934114      0.0000000000
1.9530478778           80.3802234321      0.4310000000      13.2355142836      2.2378088830      0.0000000000
1.9620260123           77.8299325076      0.4330000000      13.2343311581      2.2497867925      0.0000000000
1.9708854892           75.3883364918      0.4350000000      13.2329944526      2.2616277738      0.0000000000
1.9796273112           73.0498553196      0.4370000000      13.2315072278      2.2733324930      0.0000000000
1.9882524955           70.8092366077      0.4390000000      13.2298726942      2.2849016460      0.0000000000
1.9967620687           68.6615390803      0.4410000000      13.2280937438      2.2963359529      0.0000000000
2.0051570675           66.6021071661      0.4430000000      13.2261731524      2.3076361580      0.0000000000
2.0134385404           64.6265550558      0.4450000000      13.2241139964      2.3188030327      0.0000000000
2.0216075422           62.7307486285      0.4470000000      13.2219190745      2.3298373684      0.0000000000
2.0296651364           60.9107885051      0.4490000000      13.2195913093      2.3407399789      0.0000000000
2.0376123916           59.1629929743      0.4510000000      13.2171333829      2.3515116964      0.0000000000
2.0454503822           57.4838936633      0.4530000000      13.2145480590      2.3621533723      0.0000000000
2.0531801869           55.8702085501      0.4550000000      13.2118379966      2.3726658746      0.0000000000
2.0608028885           54.3188404041      0.4570000000      13.2090058931      2.3830500885      0.0000000000
2.0683195734           52.8268602813      0.4590000000      13.2060545283      2.3933069153      0.0000000000
2.0757313278           51.3914996893      0.4610000000      13.2029862868      2.4034372669      0.0000000000
2.0830392405           50.0101392094      0.4630000000      13.1998037080      2.4134420701      0.0000000000
2.0902444008           48.6803007924      0.4650000000      13.1965093152      2.4233222633      0.0000000000
2.0973478993           47.3996384229      0.4670000000      13.1931057531      2.4330787980      0.0000000000
2.1043508239           46.1659281459      0.4690000000      13.1895953174      2.4427126326      0.0000000000
2.1112542615           44.9770652232      0.4710000000      13.1859803079      2.4522247352      0.0000000000
2.1180592980           43.8310552640      0.4730000000      13.1822631313      2.4616160832      0.0000000000
2.1247670174           42.7260028972      0.4750000000      13.1784462528      2.4708876626      0.0000000000
2.1313784991           41.6601152257      0.4770000000      13.1745317742      2.4800404632      0.0000000000
2.1378948200           40.6316879452      0.4790000000      13.1705219216      2.4890754821      0.0000000000
2.1443170532           39.6391038078      0.4810000000      13.1664188870      2.4979937216      0.0000000000
2.1506462685           38.6808273566      0.4830000000      13.1622250107      2.5067961902      0.0000000000
2.1568835291           37.7554000092      0.4850000000      13.1579422288      2.5154838970      0.0000000000
2.1630298940           36.8614346846      0.4870000000      13.1535725869      2.5240578557      0.0000000000
2.1690864176           35.9976137130      0.4890000000      13.1491182359      2.5325190837      0.0000000000
2.1750541482           35.1626832799      0.4910000000      13.1445812684      2.5408685999      0.0000000000
2.1809341266           34.3554506143      0.4930000000      13.1399633950      2.5491074226      0.0000000000
2.1867273894           33.5747808545      0.4950000000      13.1352667334      2.5572365739      0.0000000000
2.1924349656           32.8195934823      0.4970000000      13.1304931705      2.5652570749      0.0000000000
2.1980578773           32.0888595514      0.4990000000      13.1256445876      2.5731699469      0.0000000000
2.2035971389           31.3815986308      0.5010000000      13.1207226450      2.5809762093      0.0000000000
2.2090537593           30.6968757703      0.5030000000      13.1157293778      2.5886768835      0.0000000000
2.2144287385           30.0338015710      0.5050000000      13.1106665082      2.5962729872      0.0000000000
2.2197230681           29.3915257170      0.5070000000      13.1055355886      2.6037655357      0.0000000000
2.2249377337           28.7692386477      0.5090000000      13.1003385089      2.6111555442      0.0000000000
2.2300737121           28.1661669033      0.5110000000      13.0950769598      2.6184440249      0.0000000000
2.2351319705           27.5815721174      0.5130000000      13.0897523443      2.6256319848      0.0000000000
