# M(M_sol)                 Lambda          n_Bc(fm^-3)         R(km)            m_B(M_sol)        m_Bquar/M_B
0.1524108523     50757641.6462908313      0.0830000000      24.2520657941      0.1526596208      0.0000000000
0.1595659834     41135550.4953259304      0.0850000000      23.1446218520      0.1599171410      0.0000000000
0.1667800615     33721298.6099505275      0.0870000000      22.2253565332      0.1672416143      0.0000000000
0.1740460609     27909787.9677137621      0.0890000000      21.4513770637      0.1746259802      0.0000000000
0.1813585612     23291054.2269550860      0.0910000000      20.7917454566      0.1820647972      0.0000000000
0.1887134635     19577478.2425117902      0.0930000000      20.2236060952      0.1895539590      0.0000000000
0.1961077783     16561761.4408017248      0.0950000000      19.7297220380      0.1970904832      0.0000000000
0.2035394673     14091281.5349838752      0.0970000000      19.2968597815      0.2046723542      0.0000000000
0.2110073208     12051677.6051410679      0.0990000000      18.9146983854      0.2122984010      0.0000000000
0.2185108528     10355986.3455269746      0.1010000000      18.5750768129      0.2199681940      0.0000000000
0.2260502183      8937250.5143660866      0.1030000000      18.2714624727      0.2276819622      0.0000000000
0.2336261417      7743327.6923773773      0.1050000000      17.9985675951      0.2354405235      0.0000000000
0.2412398535      6733225.0224949382      0.1070000000      17.7520706387      0.2432452208      0.0000000000
0.2488930378      5874424.5416990845      0.1090000000      17.5284078453      0.2510978719      0.0000000000
0.2565877795      5140926.0051870393      0.1110000000      17.3246162147      0.2590007156      0.0000000000
0.2642991430      4513844.5140649527      0.1130000000      17.1388431940      0.2669282112      0.0000000000
0.2718801796      3984957.9810531829      0.1150000000      16.9719635732      0.2747291119      0.0000000000
0.2794067391      3531736.6904856786      0.1170000000      16.8198517987      0.2824811910      0.0000000000
0.2869094074      3139976.3134724367      0.1190000000      16.6801102931      0.2902158323      0.0000000000
0.2944042207      2799306.2539965077      0.1210000000      16.5510405532      0.2979495185      0.0000000000
0.3019027582      2501607.8518063379      0.1230000000      16.4313015091      0.3056941892      0.0000000000
0.3094145739      2240357.7370151253      0.1250000000      16.3197938932      0.3134597354      0.0000000000
0.3169481279      2010233.9015424114      0.1270000000      16.2155990375      0.3212549532      0.0000000000
0.3245112166      1806845.5654868577      0.1290000000      16.1179393905      0.3290879848      0.0000000000
0.3321112007      1626540.2455701185      0.1310000000      16.0261507614      0.3369665518      0.0000000000
0.3397551335      1466256.4393846605      0.1330000000      15.9396617902      0.3448980867      0.0000000000
0.3474498403      1323412.5835267510      0.1350000000      15.8579784265      0.3528898141      0.0000000000
0.3552019595      1195818.5421887755      0.1370000000      15.7806707534      0.3609487931      0.0000000000
0.3630179787      1081608.1196871814      0.1390000000      15.7073642322      0.3690819540      0.0000000000
0.3709042485       979181.8558385904      0.1410000000      15.6377301010      0.3772961127      0.0000000000
0.3788669927       887164.3531459533      0.1430000000      15.5714800830      0.3855979814      0.0000000000
0.3869123160       804366.8101600460      0.1450000000      15.5083598117      0.3939941764      0.0000000000
0.3950462014       729758.4184647789      0.1470000000      15.4481446765      0.4024912155      0.0000000000
0.4032745146       662441.5875928493      0.1490000000      15.3906357043      0.4110955228      0.0000000000
0.4116029944       601632.3199915903      0.1510000000      15.3356563412      0.4198134188      0.0000000000
0.4200372545       546643.3491762582      0.1530000000      15.2830496729      0.4286511223      0.0000000000
0.4285827717       496870.3854130357      0.1550000000      15.2326757541      0.4376147385      0.0000000000
0.4372448807       451780.4308539008      0.1570000000      15.1844095382      0.4467102534      0.0000000000
0.4460287697       410902.0903516843      0.1590000000      15.1381393143      0.4559435293      0.0000000000
0.4549394666       373817.3180520596      0.1610000000      15.0937648441      0.4653202906      0.0000000000
0.4639818405       340154.2918742889      0.1630000000      15.0511958822      0.4748461255      0.0000000000
0.4731605626       309581.7851874200      0.1650000000      15.0103514000      0.4845264444      0.0000000000
0.4824801409       281803.7488459002      0.1670000000      14.9711581182      0.4943665165      0.0000000000
0.4919448770       256555.1624641225      0.1690000000      14.9335493648      0.5043714245      0.0000000000
0.5015588693       233598.3027711570      0.1710000000      14.8974648422      0.5145460671      0.0000000000
0.5113259987       212719.5254997027      0.1730000000      14.8628494141      0.5248951443      0.0000000000
0.5212499202       193726.4561287517      0.1750000000      14.8296525558      0.5354231475      0.0000000000
0.5313340510       176445.6375787613      0.1770000000      14.7978276844      0.5461343464      0.0000000000
0.5415815635       160720.4204050699      0.1790000000      14.7673317745      0.5570327815      0.0000000000
0.5519953738       146409.1539029541      0.1810000000      14.7381247866      0.5681222505      0.0000000000
0.5625781315       133383.6002944041      0.1830000000      14.7101691855      0.5794062966      0.0000000000
0.5733322154       121527.5256976539      0.1850000000      14.6834297948      0.5908882036      0.0000000000
0.5842597183       110735.4849419466      0.1870000000      14.6578732001      0.6025709777      0.0000000000
0.5953624504       100911.7293815413      0.1890000000      14.6334674195      0.6144573502      0.0000000000
0.6066419372        91969.2756583150      0.1910000000      14.6101819960      0.6265497740      0.0000000000
0.6180993490        83829.0630299477      0.1930000000      14.5879875006      0.6388503463      0.0000000000
0.6297356031        76419.1158274302      0.1950000000      14.5668552180      0.6513609164      0.0000000000
0.6415512857        69673.9850225190      0.1970000000      14.5467573497      0.6640830000      0.0000000000
0.6535466663        63534.0535902059      0.1990000000      14.5276664043      0.6770177928      0.0000000000
0.6657216957        57945.0597979476      0.2010000000      14.5095554887      0.6901661665      0.0000000000
0.6780760048        52857.5691995765      0.2030000000      14.4923980221      0.7035286644      0.0000000000
0.6906089005        48226.5555639422      0.2050000000      14.4761674283      0.7171054950      0.0000000000
0.7033193697        44011.0030582390      0.2070000000      14.4608374896      0.7308965338      0.0000000000
0.7162060782        40173.5461532174      0.2090000000      14.4463819775      0.7449013195      0.0000000000
0.7292673733        36680.1518900474      0.2110000000      14.4327746926      0.7591190538      0.0000000000
0.7425012872        33499.8168785069      0.2130000000      14.4199894972      0.7735486020      0.0000000000
0.7559055427        30604.3007819841      0.2150000000      14.4080002501      0.7881884967      0.0000000000
0.7694775542        27967.8926922805      0.2170000000      14.3967807074      0.8030369355      0.0000000000
0.7832144392        25567.1737067747      0.2190000000      14.3863046732      0.8180917905      0.0000000000
0.7971130058        23380.8325362582      0.2210000000      14.3765458747      0.8333505911      0.0000000000
0.8111698225        21389.4607214830      0.2230000000      14.3674780493      0.8488105977      0.0000000000
0.8253811392        19575.4052559157      0.2250000000      14.3590750458      0.8644687113      0.0000000000
0.8397429531        17922.6005323167      0.2270000000      14.3513106220      0.8803215431      0.0000000000
0.8542510068        16416.4317126751      0.2290000000      14.3441586517      0.8963654081      0.0000000000
0.8689007982        15043.6060387724      0.2310000000      14.3375930699      0.9125963339      0.0000000000
0.8836875931        13792.0366767086      0.2330000000      14.3315879810      0.9290100706      0.0000000000
0.8986064370        12650.7338364387      0.2350000000      14.3261176489      0.9456021007      0.0000000000
0.9136521687        11609.7063048885      0.2370000000      14.3211564318      0.9623676510      0.0000000000
0.9288194333        10659.8760147819      0.2390000000      14.3166790729      0.9793017041      0.0000000000
0.9441026958         9792.9914049723      0.2410000000      14.3126604819      0.9963990104      0.0000000000
0.9594962564         9001.5532356768      0.2430000000      14.3090758434      1.0136541019      0.0000000000
0.9749942639         8278.7509256055      0.2450000000      14.3059007713      1.0310613049      0.0000000000
0.9905907301         7618.3957844998      0.2470000000      14.3031111541      1.0486147526      0.0000000000
1.0062795462         7014.8660431265      0.2490000000      14.3006833380      1.0663084018      0.0000000000
1.0220544956         6463.0551970138      0.2510000000      14.2985940664      1.0841360442      0.0000000000
1.0379092707         5958.3250761559      0.2530000000      14.2968205532      1.1020913231      0.0000000000
1.0538374863         5496.4619616027      0.2550000000      14.2953404711      1.1201677465      0.0000000000
1.0698326947         5073.6395489097      0.2570000000      14.2941320285      1.1383587021      0.0000000000
1.0858884011         4686.3810888593      0.2590000000      14.2931740048      1.1566574731      0.0000000000
1.1019980761         4331.5288627956      0.2610000000      14.2924456213      1.1750572506      0.0000000000
1.1181551717         4006.2142212279      0.2630000000      14.2919267590      1.1935511500      0.0000000000
1.1343531328         3707.8299539987      0.2650000000      14.2915978084      1.2121322237      0.0000000000
1.1505854129         3434.0078995250      0.2670000000      14.2914398453      1.2307934772      0.0000000000
1.1668454852         3182.5954192532      0.2690000000      14.2914345090      1.2495278814      0.0000000000
1.1831268556         2951.6355674069      0.2710000000      14.2915639966      1.2683283863      0.0000000000
1.1994230750         2739.3498829243      0.2730000000      14.2918112262      1.2871879351      0.0000000000
1.2157277502         2544.1207980757      0.2750000000      14.2921596577      1.3060994760      0.0000000000
1.2320345555         2364.4770346558      0.2770000000      14.2925934759      1.3250559762      0.0000000000
1.2483372417         2199.0804498646      0.2790000000      14.2930973918      1.3440504316      0.0000000000
1.2646296478         2046.7132846977      0.2810000000      14.2936568052      1.3630758804      0.0000000000
1.2809057087         1906.2669842161      0.2830000000      14.2942577548      1.3821254137      0.0000000000
1.2971594643         1776.7324648341      0.2850000000      14.2948868363      1.4011921850      0.0000000000
1.3133850674         1657.1904346296      0.2870000000      14.2955313145      1.4202694216      0.0000000000
1.3295767913         1546.8037463489      0.2890000000      14.2961790409      1.4393504332      0.0000000000
1.3457290365         1444.8091822000      0.2910000000      14.2968185120      1.4584286214      0.0000000000
1.3618363365         1350.5110348705      0.2930000000      14.2974387489      1.4774974876      0.0000000000
1.3778933640         1263.2748470276      0.2950000000      14.2980293948      1.4965506412      0.0000000000
1.3938949351         1182.5217935215      0.2970000000      14.2985806326      1.5155818064      0.0000000000
1.4098360146         1107.7234491111      0.2990000000      14.2990832193      1.5345848299      0.0000000000
1.4257117193         1038.3974402830      0.3010000000      14.2995284700      1.5535536858      0.0000000000
1.4415173211          974.1031722582      0.3030000000      14.2999082015      1.5724824819      0.0000000000
1.4572482506          914.4378753474      0.3050000000      14.3002147798      1.5913654650      0.0000000000
1.4729000983          859.0334996112      0.3070000000      14.3004410398      1.6101970249      0.0000000000
1.4884686167          807.5532558899      0.3090000000      14.3005802779      1.6289716979      0.0000000000
1.5039497224          759.6891050339      0.3110000000      14.3006263330      1.6476841721      0.0000000000
1.5193394958          715.1589350168      0.3130000000      14.3005734760      1.6663292889      0.0000000000
1.5346341818          673.7044130045      0.3150000000      14.3004163548      1.6849020455      0.0000000000
1.5498301901          635.0888145312      0.3170000000      14.3001501378      1.7033975980      0.0000000000
1.5649240946          599.0951468160      0.3190000000      14.2997703327      1.7218112621      0.0000000000
1.5799126328          565.5242884021      0.3210000000      14.2992728583      1.7401385153      0.0000000000
1.5947927036          534.1936134660      0.3230000000      14.2986540100      1.7583749956      0.0000000000
1.6095613678          504.9353988726      0.3250000000      14.2979104646      1.7765165051      0.0000000000
1.6242158446          477.5955934491      0.3270000000      14.2970392100      1.7945590070      0.0000000000
1.6387535112          452.0325648022      0.3290000000      14.2960375802      1.8124986280      0.0000000000
1.6531718989          428.1161474128      0.3310000000      14.2949032408      1.8303316553      0.0000000000
1.6674686918          405.7265575286      0.3330000000      14.2936341487      1.8480545374      0.0000000000
1.6816417237          384.7535132844      0.3350000000      14.2922285092      1.8656638819      0.0000000000
1.6956889753          365.0955057978      0.3370000000      14.2906848599      1.8831564546      0.0000000000
1.7096085712          346.6589320402      0.3390000000      14.2890019841      1.9005291780      0.0000000000
1.7233987767          329.3575642019      0.3410000000      14.2871788854      1.9177791285      0.0000000000
1.7370579947          313.1118054543      0.3430000000      14.2852147974      1.9349035351      0.0000000000
1.7505847615          297.8482406700      0.3450000000      14.2831092119      1.9518997765      0.0000000000
1.7639777446          283.4990646467      0.3470000000      14.2808618062      1.9687653795      0.0000000000
1.7772357378          270.0016219631      0.3490000000      14.2784724400      1.9854980149      0.0000000000
1.7903576587          257.2980152524      0.3510000000      14.2759411872      2.0020954965      0.0000000000
1.8033425442          245.3346851098      0.3530000000      14.2732682645      2.0185557766      0.0000000000
1.8161895469          234.0620646540      0.3550000000      14.2704540631      2.0348769440      0.0000000000
1.8288979317          223.4342889728      0.3570000000      14.2674991428      2.0510572207      0.0000000000
1.8414670719          213.4088430304      0.3590000000      14.2644042011      2.0670949585      0.0000000000
1.8538964450          203.9463460280      0.3610000000      14.2611700334      2.0829886355      0.0000000000
1.8661856296          195.0102657050      0.3630000000      14.2577976026      2.0987368536      0.0000000000
1.8783343012          186.5667146205      0.3650000000      14.2542879768      2.1143383348      0.0000000000
1.8903422288          178.5842270105      0.3670000000      14.2506422906      2.1297919175      0.0000000000
1.9022092709          171.0335948648      0.3690000000      14.2468618412      2.1450965534      0.0000000000
1.9139353721          163.8876585154      0.3710000000      14.2429479766      2.1602513042      0.0000000000
1.9255205595          157.1211822622      0.3730000000      14.2389021409      2.1752553377      0.0000000000
1.9369649391          150.7106767961      0.3750000000      14.2347258263      2.1901079252      0.0000000000
1.9482686923          144.6342949072      0.3770000000      14.2304206493      2.2048084375      0.0000000000
1.9594320730          138.8716847630      0.3790000000      14.2259882481      2.2193563421      0.0000000000
1.9704554025          133.4038864565      0.3810000000      14.2214303410      2.2337511979      0.0000000000
1.9813390687          128.2132292018      0.3830000000      14.2167486870      2.2479926549      0.0000000000
1.9920835214          123.2832279083      0.3850000000      14.2119450793      2.2620804490      0.0000000000
2.0026892696          118.5985107357      0.3870000000      14.2070213771      2.2760143995      0.0000000000
2.0131568780          114.1447209558      0.3890000000      14.2019794671      2.2897944049      0.0000000000
2.0234869647          109.9084506961      0.3910000000      14.1968212634      2.3034204410      0.0000000000
2.0336801980          105.8771702386      0.3930000000      14.1915487232      2.3168925574      0.0000000000
2.0437372933          102.0391645194      0.3950000000      14.1861637866      2.3302108737      0.0000000000
2.0536590110           98.3834797223      0.3970000000      14.1806684717      2.3433755778      0.0000000000
2.0634461534           94.8998640180      0.3990000000      14.1750647699      2.3563869219      0.0000000000
2.0730995618           91.5787144387      0.4010000000      14.1693547055      2.3692452201      0.0000000000
2.0826201161           88.4110380028      0.4030000000      14.1635403048      2.3819508467      0.0000000000
2.0920087292           85.3884087123      0.4050000000      14.1576236035      2.3945042311      0.0000000000
2.1012663469           82.5029279257      0.4070000000      14.1516066336      2.4069058567      0.0000000000
2.1103939453           79.7471774551      0.4090000000      14.1454914395      2.4191562587      0.0000000000
2.1193925282           77.1142060471      0.4110000000      14.1392800602      2.4312560202      0.0000000000
2.1282631255           74.5974814069      0.4130000000      14.1329745350      2.4432057712      0.0000000000
2.1370067907           72.1908672670      0.4150000000      14.1265768787      2.4550061848      0.0000000000
2.1456246000           69.8885973107      0.4170000000      14.1200891341      2.4666579766      0.0000000000
2.1541176490           67.6852547214      0.4190000000      14.1135132946      2.4781619004      0.0000000000
2.1624870522           65.5757364843      0.4210000000      14.1068513769      2.4895187480      0.0000000000
2.1707339409           63.5552462654      0.4230000000      14.1001053637      2.5007293459      0.0000000000
2.1788594619           61.6192678454      0.4250000000      14.0932772223      2.5117945547      0.0000000000
2.1868647738           59.7635449670      0.4270000000      14.0863689233      2.5227152628      0.0000000000
2.1947510491           57.9840717597      0.4290000000      14.0793824039      2.5334923909      0.0000000000
2.2025194707           56.2770637831      0.4310000000      14.0723195883      2.5441268862      0.0000000000
2.2101712306           54.6389620488      0.4330000000      14.0651823845      2.5546197211      0.0000000000
2.2177075288           53.0664012018      0.4350000000      14.0579726909      2.5649718920      0.0000000000
2.2251295724           51.5562095566      0.4370000000      14.0506923524      2.5751844175      0.0000000000
2.2324385738           50.1053891884      0.4390000000      14.0433432237      2.5852583365      0.0000000000
2.2396357506           48.7111103529      0.4410000000      14.0359271316      2.5951947076      0.0000000000
