# M(M_sol)                 Lambda          n_Bc(fm^-3)         R(km)            m_B(M_sol)        m_Bquar/M_B
0.1504444443     28615561.7717430480      0.1330000000      20.9411348072      0.1506140195      0.0000000000
0.1540831429     25085744.6187484525      0.1350000000      20.3757757282      0.1543005097      0.0000000000
0.1578768812     21982467.1032428257      0.1370000000      19.8483355026      0.1581463086      0.0000000000
0.1618325761     19253492.6212052591      0.1390000000      19.3557562637      0.1621587060      0.0000000000
0.1659571453     16853784.2518487163      0.1410000000      18.8953415479      0.1663450207      0.0000000000
0.1702575017     14744217.0604332462      0.1430000000      18.4646992249      0.1707125957      0.0000000000
0.1747405208     12890579.7463548928      0.1450000000      18.0616936344      0.1752687671      0.0000000000
0.1794130422     11262819.7521234397      0.1470000000      17.6844100969      0.1800208672      0.0000000000
0.1842818241      9834444.1447987705      0.1490000000      17.3311201162      0.1849761793      0.0000000000
0.1893535143      8582024.2712183278      0.1510000000      17.0002571878      0.1901419103      0.0000000000
0.1946346539      7484809.3285436481      0.1530000000      16.6903934746      0.1955251951      0.0000000000
0.2001316390      6524398.2503414154      0.1550000000      16.4002222101      0.2011330594      0.0000000000
0.2058506975      5684467.8138489285      0.1570000000      16.1285423900      0.2069723969      0.0000000000
0.2117978583      4950536.7119041905      0.1590000000      15.8742452668      0.2130499393      0.0000000000
0.2179789614      4309763.9012610968      0.1610000000      15.6363048258      0.2193722671      0.0000000000
0.2243995934      3750773.9236233663      0.1630000000      15.4137671800      0.2259457448      0.0000000000
0.2310650953      3263495.3007878531      0.1650000000      15.2057430160      0.2327765292      0.0000000000
0.2379805490      2839027.3091885564      0.1670000000      15.0114030718      0.2398705562      0.0000000000
0.2451507208      2469508.5630190815      0.1690000000      14.8299683995      0.2472334829      0.0000000000
0.2525800971      2148011.1287593874      0.1710000000      14.6607097629      0.2548707247      0.0000000000
0.2602728223      1868435.3549125027      0.1730000000      14.5029408578      0.2627873908      0.0000000000
0.2682327023      1625419.3890849564      0.1750000000      14.3560152830      0.2709882880      0.0000000000
0.2764631943      1414258.5346873107      0.1770000000      14.2193242912      0.2794779088      0.0000000000
0.2849673829      1230828.7897618937      0.1790000000      14.0922927284      0.2882604068      0.0000000000
0.2937479785      1071521.4143538133      0.1810000000      13.9743775603      0.2973395935      0.0000000000
0.3028072958       933182.3347520708      0.1830000000      13.8650651674      0.3067189144      0.0000000000
0.3121472463       813058.6305544946      0.1850000000      13.7638693470      0.3164014405      0.0000000000
0.3217693420       708750.2314229732      0.1870000000      13.6703304348      0.3263898693      0.0000000000
0.3316746687       618166.9576257310      0.1890000000      13.5840124086      0.3366864960      0.0000000000
0.3418638982       539490.6168917260      0.1910000000      13.5045027691      0.3472932233      0.0000000000
0.3523372794       471140.6557952542      0.1930000000      13.4314106288      0.3582115492      0.0000000000
0.3630946175       411744.5663888392      0.1950000000      13.3643645976      0.3694425436      0.0000000000
0.3741353053       360111.2648005784      0.1970000000      13.3030138599      0.3809868769      0.0000000000
0.3854582964       315207.6967497083      0.1990000000      13.2470250703      0.3928447892      0.0000000000
0.3970621109       276138.3555813229      0.2010000000      13.1960818672      0.4050160927      0.0000000000
0.4089448546       242127.4669487169      0.2030000000      13.1498851493      0.4175001882      0.0000000000
0.4211042010       212503.0418080073      0.2050000000      13.1081506525      0.4302960423      0.0000000000
0.4335374092       186683.2123835017      0.2070000000      13.0706088275      0.4434022023      0.0000000000
0.4462413297       164164.2866121309      0.2090000000      13.0370044870      0.4568167979      0.0000000000
0.4592124099       144510.2351200987      0.2110000000      13.0070954312      0.4705375431      0.0000000000
0.4724466987       127343.6257937954      0.2130000000      12.9806517971      0.4845617362      0.0000000000
0.4859398676       112337.7372340538      0.2150000000      12.9574559618      0.4988862779      0.0000000000
0.4996872155        99209.7377496663      0.2170000000      12.9373016699      0.5135076717      0.0000000000
0.5136836757        87714.7027949625      0.2190000000      12.9199929123      0.5284220268      0.0000000000
0.5279238452        77640.5234077115      0.2210000000      12.9053445995      0.5436250843      0.0000000000
0.5424019840        68803.4315453744      0.2230000000      12.8931809796      0.5591122121      0.0000000000
0.5571120356        61044.1609006065      0.2250000000      12.8833354932      0.5748784219      0.0000000000
0.5720476452        54224.6245149143      0.2270000000      12.8756504338      0.5909183842      0.0000000000
0.5872021731        48225.0492835119      0.2290000000      12.8699763680      0.6072264377      0.0000000000
0.6025687142        42941.4871807603      0.2310000000      12.8661718298      0.6237966061      0.0000000000
0.6181401157        38283.6777156163      0.2330000000      12.8641029003      0.6406226123      0.0000000000
0.6339089944        34173.2003107636      0.2350000000      12.8636428011      0.6576978935      0.0000000000
0.6498677557        30541.8786917277      0.2370000000      12.8646715596      0.6750156163      0.0000000000
0.6660086108        27330.3972508750      0.2390000000      12.8670754594      0.6925686925      0.0000000000
0.6823236023        24487.1237839064      0.2410000000      12.8707473476      0.7103498021      0.0000000000
0.6988046162        21967.0773339385      0.2430000000      12.8755857981      0.7283514029      0.0000000000
0.7154433992        19731.0353482253      0.2450000000      12.8814944974      0.7465657462      0.0000000000
0.7322315894        17744.7800604932      0.2470000000      12.8883830249      0.7649849063      0.0000000000
0.7491607238        15978.4299088350      0.2490000000      12.8961656664      0.7836007863      0.0000000000
0.7662222650        14405.8709719436      0.2510000000      12.9047617700      0.8024051437      0.0000000000
0.7834076108        13004.2587850135      0.2530000000      12.9140947607      0.8213895992      0.0000000000
0.8007081221        11753.5967718030      0.2550000000      12.9240927921      0.8405456644      0.0000000000
0.8181151391        10636.3628532991      0.2570000000      12.9346880134      0.8598647577      0.0000000000
0.8356199830         9637.1902708213      0.2590000000      12.9458165644      0.8793382043      0.0000000000
0.8532139986         8742.5904307852      0.2610000000      12.9574182837      0.8989572816      0.0000000000
0.8708885511         7940.7100246319      0.2630000000      12.9694363121      0.9187132149      0.0000000000
0.8886350516         7221.1273990437      0.2650000000      12.9818175795      0.9385972034      0.0000000000
0.9064449660         6574.6676589001      0.2670000000      12.9945119591      0.9586004305      0.0000000000
0.9243098315         5993.2469223637      0.2690000000      13.0074723665      0.9787140813      0.0000000000
0.9422212715         5469.7349606544      0.2710000000      13.0206546276      0.9989293581      0.0000000000
0.9601710070         4997.8384590065      0.2730000000      13.0340173351      1.0192374942      0.0000000000
0.9781508701         4571.9959535104      0.2750000000      13.0475218685      1.0396297685      0.0000000000
0.9961528138         4187.2879970497      0.2770000000      13.0611318511      1.0600975172      0.0000000000
1.0141689216         3839.3589466411      0.2790000000      13.0748132469      1.0806321449      0.0000000000
1.0321914221         3524.3492718267      0.2810000000      13.0885344749      1.1012251422      0.0000000000
1.0502126925         3238.8343864160      0.2830000000      13.1022658077      1.1218680904      0.0000000000
1.0682252720         2979.7739971779      0.2850000000      13.1159798560      1.1425526782      0.0000000000
1.0862218653         2744.4653875763      0.2870000000      13.1296508989      1.1632707067      0.0000000000
1.1041953509         2530.5038914789      0.2890000000      13.1432550541      1.1840141007      0.0000000000
1.1221387884         2335.7479835469      0.2910000000      13.1567702264      1.2047749184      0.0000000000
1.1400454231         2158.2885586814      0.2930000000      13.1701759401      1.2255453587      0.0000000000
1.1579086903         1996.4220598911      0.2950000000      13.1834532477      1.2463177685      0.0000000000
1.1757222192         1848.6267661402      0.2970000000      13.1965846339      1.2670846484      0.0000000000
1.1934798376         1713.5423021240      0.2990000000      13.2095540146      1.2878386612      0.0000000000
1.2111755735         1589.9510797028      0.3010000000      13.2223465864      1.3085726356      0.0000000000
1.2288036578         1476.7624968540      0.3030000000      13.2349487967      1.3292795716      0.0000000000
1.2463585260         1372.9984839798      0.3050000000      13.2473482142      1.3499526455      0.0000000000
1.2638348186         1277.7814342477      0.3070000000      13.2595336139      1.3705852126      0.0000000000
1.2812273822         1190.3227454083      0.3090000000      13.2714946829      1.3911708109      0.0000000000
1.2985312694         1109.9134242573      0.3110000000      13.2832221917      1.4117031641      0.0000000000
1.3157417385         1035.9152266705      0.3130000000      13.2947077886      1.4321761834      0.0000000000
1.3328542523          967.7532833630      0.3150000000      13.3059440264      1.4525839695      0.0000000000
1.3498644767          904.9091524950      0.3170000000      13.3169242439      1.4729208129      0.0000000000
1.3667682797          846.9148710188      0.3190000000      13.3276425436      1.4931811963      0.0000000000
1.3835617292          793.3477910114      0.3210000000      13.3380938851      1.5133597941      0.0000000000
1.4002410895          743.8256893631      0.3230000000      13.3482737012      1.5334514711      0.0000000000
1.4168028201          698.0026558468      0.3250000000      13.3581782179      1.5534512843      0.0000000000
1.4332435724          655.5653590198      0.3270000000      13.3678042334      1.5733544812      0.0000000000
1.4495601861          616.2297632415      0.3290000000      13.3771490935      1.5931564984      0.0000000000
1.4657496860          579.7381069772      0.3310000000      13.3862107156      1.6128529605      0.0000000000
1.4818092776          545.8562582126      0.3330000000      13.3949873524      1.6324396769      0.0000000000
1.4977363459          514.3714662914      0.3350000000      13.4034779899      1.6519126440      0.0000000000
1.5135284487          485.0901156352      0.3370000000      13.4116818031      1.6712680387      0.0000000000
1.5291833122          457.8359511410      0.3390000000      13.4195985117      1.6905022160      0.0000000000
1.5446988296          432.4483295237      0.3410000000      13.4272281146      1.7096117098      0.0000000000
1.5600730551          408.7807604977      0.3430000000      13.4345710506      1.7285932278      0.0000000000
1.5753041987          386.6994863067      0.3450000000      13.4416279602      1.7474436477      0.0000000000
1.5903906246          366.0823852920      0.3470000000      13.4483999942      1.7661600172      0.0000000000
1.6053308423          346.8177151687      0.3490000000      13.4548882944      1.7847395459      0.0000000000
1.6201235070          328.8033170194      0.3510000000      13.4610945604      1.8031796073      0.0000000000
1.6347674107          311.9455696808      0.3530000000      13.4670204729      1.8214777303      0.0000000000
1.6492614808          296.1587074148      0.3550000000      13.4726680766      1.8396315992      0.0000000000
1.6636047740          281.3640786475      0.3570000000      13.4780396099      1.8576390489      0.0000000000
1.6777964713          267.4894603209      0.3590000000      13.4831373508      1.8754980592      0.0000000000
1.6918358760          254.4685417774      0.3610000000      13.4879639951      1.8932067555      0.0000000000
1.7057224060          242.2403482576      0.3630000000      13.4925221668      1.9107634002      0.0000000000
1.7194555921          230.7487982017      0.3650000000      13.4968147912      1.9281663923      0.0000000000
1.7330350712          219.9422495895      0.3670000000      13.5008447619      1.9454142610      0.0000000000
1.7464605845          209.7731406638      0.3690000000      13.5046152409      1.9625056640      0.0000000000
1.7597319707          200.1975967990      0.3710000000      13.5081293327      1.9794393817      0.0000000000
1.7728491644          191.1751730090      0.3730000000      13.5113903750      1.9962143155      0.0000000000
1.7858121903          182.6685116300      0.3750000000      13.5144017611      2.0128294822      0.0000000000
1.7986211591          174.6430905599      0.3770000000      13.5171668576      2.0292840106      0.0000000000
1.8112762646          167.0670066769      0.3790000000      13.5196891755      2.0455771380      0.0000000000
1.8237777792          159.9107333269      0.3810000000      13.5219722477      2.0617082065      0.0000000000
1.8361260507          153.1469541817      0.3830000000      13.5240197368      2.0776766597      0.0000000000
1.8483214976          146.7503331420      0.3850000000      13.5258351914      2.0934820377      0.0000000000
1.8603646063          140.6974085830      0.3870000000      13.5274222702      2.1091239744      0.0000000000
1.8722559279          134.9664098307      0.3890000000      13.5287846692      2.1246021945      0.0000000000
1.8839960744          129.5371288644      0.3910000000      13.5299261275      2.1399165096      0.0000000000
1.8955857152          124.3907950978      0.3930000000      13.5308503142      2.1550668138      0.0000000000
1.9070255739          119.5099633454      0.3950000000      13.5315609303      2.1700530816      0.0000000000
1.9183164263          114.8784121286      0.3970000000      13.5320617042      2.1848753646      0.0000000000
1.9294590962          110.4810460690      0.3990000000      13.5323563756      2.1995337876      0.0000000000
1.9404544532          106.3038141567      0.4010000000      13.5324486839      2.2140285463      0.0000000000
1.9513034093          102.3336167668      0.4030000000      13.5323422716      2.2283599027      0.0000000000
1.9620069164           98.5582474934      0.4050000000      13.5320408068      2.2425281836      0.0000000000
1.9725659647           94.9663213286      0.4070000000      13.5315479962      2.2565337781      0.0000000000
1.9829815787           91.5472117280      0.4090000000      13.5308674767      2.2703771327      0.0000000000
1.9932548159           88.2909962551      0.4110000000      13.5300028812      2.2840587506      0.0000000000
2.0033867635           85.1883974943      0.4130000000      13.5289577541      2.2975791873      0.0000000000
2.0133785373           82.2307521015      0.4150000000      13.5277356991      2.3109390500      0.0000000000
2.0232312789           79.4099517906      0.4170000000      13.5263402887      2.3241389933      0.0000000000
2.0329461533           76.7184041958      0.4190000000      13.5247749552      2.3371797170      0.0000000000
2.0425243478           74.1490069396      0.4210000000      13.5230432327      2.3500619650      0.0000000000
2.0519670695           71.6950983717      0.4230000000      13.5211485289      2.3627865214      0.0000000000
2.0612755431           69.3504370205      0.4250000000      13.5190941758      2.3753542085      0.0000000000
2.0704510106           67.1091703235      0.4270000000      13.5168835987      2.3877658862      0.0000000000
2.0794947285           64.9658049690      0.4290000000      13.5145201113      2.4000224485      0.0000000000
2.0884079660           62.9151828137      0.4310000000      13.5120069932      2.4121248213      0.0000000000
2.0971920044           60.9524589162      0.4330000000      13.5093474604      2.4240739612      0.0000000000
2.1058481344           59.0730792999      0.4350000000      13.5065446520      2.4358708527      0.0000000000
2.1143776572           57.2727653721      0.4370000000      13.5036018506      2.4475165086      0.0000000000
2.1227818792           55.5474860400      0.4390000000      13.5005220125      2.4590119646      0.0000000000
2.1310621149           53.8934526780      0.4410000000      13.4973082752      2.4703582812      0.0000000000
2.1392196831           52.3070956304      0.4430000000      13.4939636481      2.4815565398      0.0000000000
2.1472559061           50.7850510404      0.4450000000      13.4904910608      2.4926078419      0.0000000000
2.1551721101           49.3241502076      0.4470000000      13.4868934819      2.5035133081      0.0000000000
2.1629696220           47.9214045646      0.4490000000      13.4831737700      2.5142740752      0.0000000000
2.1706497704           46.5739946278      0.4510000000      13.4793347859      2.5248912967      0.0000000000
2.1782138829           45.2792582149      0.4530000000      13.4753792580      2.5353661392      0.0000000000
2.1856632873           44.0346837964      0.4550000000      13.4713099717      2.5456997841      0.0000000000
2.1929993088           42.8378980039      0.4570000000      13.4671296256      2.5558934230      0.0000000000
2.2002232700           41.6866562815      0.4590000000      13.4628408280      2.5659482591      0.0000000000
2.2073364908           40.5788391471      0.4610000000      13.4584462370      2.5758655048      0.0000000000
2.2143402868           39.5124408814      0.4630000000      13.4539483963      2.5856463812      0.0000000000
2.2212359689           38.4855614644      0.4650000000      13.4493498136      2.5952921167      0.0000000000
2.2280248427           37.4964054845      0.4670000000      13.4446529577      2.6048039456      0.0000000000
2.2347082083           36.5432710876      0.4690000000      13.4398602688      2.6141831086      0.0000000000
2.2412873594           35.6245458129      0.4710000000      13.4349741318      2.6234308506      0.0000000000
2.2477635828           34.7387021819      0.4730000000      13.4299968925      2.6325484202      0.0000000000
2.2541381577           33.8842897105      0.4750000000      13.4249308344      2.6415370683      0.0000000000
2.2604123558           33.0599350578      0.4770000000      13.4197781995      2.6503980487      0.0000000000
2.2665874407           32.2643347373      0.4790000000      13.4145412634      2.6591326160      0.0000000000
2.2726646672           31.4962492202      0.4810000000      13.4092221202      2.6677420258      0.0000000000
2.2786452813           30.7545040678      0.4830000000      13.4038229365      2.6762275334      0.0000000000
2.2845305201           30.0379819875      0.4850000000      13.3983458295      2.6845903936      0.0000000000
2.2903216107           29.3456217657      0.4870000000      13.3927928251      2.6928318598      0.0000000000
2.2960197704           28.6764137978      0.4890000000      13.3871659273      2.7009531829      0.0000000000
2.3016262067           28.0293989241      0.4910000000      13.3814671295      2.7089556124      0.0000000000
