# M(M_sol)                 Lambda          n_Bc(fm^-3)         R(km)            m_B(M_sol)        m_Bquar/M_B
0.1541597540     36143303.5916723087      0.1060000000      22.3463479143      0.1543954553      0.0000000000
0.1588660683     31021137.2659070008      0.1080000000      21.6443734641      0.1591660224      0.0000000000
0.1636648952     26718749.5627352111      0.1100000000      21.0162977429      0.1640336419      0.0000000000
0.1685549288     23086368.8081034236      0.1120000000      20.4516985269      0.1689971675      0.0000000000
0.1735001847     20025615.7691055201      0.1140000000      19.9453527394      0.1740202167      0.0000000000
0.1784462929     17457967.1018751301      0.1160000000      19.4936166057      0.1790476141      0.0000000000
0.1834319063     15273525.5376937836      0.1180000000      19.0852135371      0.1841186825      0.0000000000
0.1884679654     13402232.3339468148      0.1200000000      18.7135670788      0.1892446380      0.0000000000
0.1935603637     11790955.0292262081      0.1220000000      18.3737089221      0.1944315869      0.0000000000
0.1987132846     10397651.3677748460      0.1240000000      18.0616447214      0.1996839103      0.0000000000
0.2039301481      9188381.9832397420      0.1260000000      17.7740772922      0.2050052241      0.0000000000
0.2092139903      8135401.1615053033      0.1280000000      17.5082413526      0.2103987644      0.0000000000
0.2145676442      7215802.3561459398      0.1300000000      17.2617916152      0.2158675705      0.0000000000
0.2199938332      6410542.1529239453      0.1320000000      17.0327219385      0.2214145807      0.0000000000
0.2254952240      5703675.1894207895      0.1340000000      16.8193038439      0.2270426855      0.0000000000
0.2310744561      5081782.8821192021      0.1360000000      16.6200386287      0.2327547586      0.0000000000
0.2367341584      4533513.8702265611      0.1380000000      16.4336203787      0.2385536735      0.0000000000
0.2424769578      4049221.9761879202      0.1400000000      16.2589046114      0.2444423130      0.0000000000
0.2483054853      3620681.0318504260      0.1420000000      16.0948851948      0.2504235754      0.0000000000
0.2542223734      3240844.6266113776      0.1440000000      15.9406728894      0.2565003724      0.0000000000
0.2602302573      2903659.2139805518      0.1460000000      15.7954793580      0.2626756303      0.0000000000
0.2663317728      2603906.0769199841      0.1480000000      15.6586032651      0.2689522890      0.0000000000
0.2725295477      2337073.7230548663      0.1500000000      15.5294183715      0.2753332922      0.0000000000
0.2788262020      2099250.4087391407      0.1520000000      15.4073639435      0.2818215891      0.0000000000
0.2852243468      1887034.8366413182      0.1540000000      15.2919358747      0.2884201332      0.0000000000
0.2917265513      1697464.6393053194      0.1560000000      15.1826811937      0.2951318484      0.0000000000
0.2983353762      1527951.2298990909      0.1580000000      15.0791898501      0.3019596636      0.0000000000
0.3050533424      1376228.0900037203      0.1600000000      14.9810905824      0.3089064813      0.0000000000
0.3118829309      1240307.8713879352      0.1620000000      14.8880469049      0.3159751771      0.0000000000
0.3188265716      1118442.9739850305      0.1640000000      14.7997516644      0.3231685889      0.0000000000
0.3258866426      1009094.9895228756      0.1660000000      14.7159254641      0.3304895153      0.0000000000
0.3330654569       910906.5939073436      0.1680000000      14.6363122779      0.3379407034      0.0000000000
0.3403652599       822678.3437316547      0.1700000000      14.5606773250      0.3455248451      0.0000000000
0.3477882199       743348.9930020355      0.1720000000      14.4888052629      0.3532445678      0.0000000000
0.3553364214       671977.4974041674      0.1740000000      14.4204971867      0.3611024279      0.0000000000
0.3630118525       607729.1542401770      0.1760000000      14.3555699555      0.3691008965      0.0000000000
0.3708164206       549861.6857481946      0.1780000000      14.2938536670      0.3772423765      0.0000000000
0.3787519111       497714.8766686355      0.1800000000      14.2351908993      0.3855291598      0.0000000000
0.3868200048       450700.4208545619      0.1820000000      14.1794352772      0.3939634439      0.0000000000
0.3950222642       408293.6704289147      0.1840000000      14.1264503058      0.4025473188      0.0000000000
0.4033601279       370026.2858279626      0.1860000000      14.0761085458      0.4112827599      0.0000000000
0.4118349044       335479.7183381146      0.1880000000      14.0282906901      0.4201716217      0.0000000000
0.4204477670       304279.5786445442      0.1900000000      13.9828846749      0.4292156315      0.0000000000
0.4291997475       276090.7573603863      0.1920000000      13.9397851005      0.4384163826      0.0000000000
0.4380917322       250613.0341644676      0.1940000000      13.8988927934      0.4477753299      0.0000000000
0.4471244557       227577.2611952162      0.1960000000      13.8601138377      0.4572937820      0.0000000000
0.4562984985       206741.9011663285      0.1980000000      13.8233593978      0.4669728985      0.0000000000
0.4656142814       187890.2133864106      0.2000000000      13.7885452084      0.4768136832      0.0000000000
0.4750720632       170827.4429996358      0.2020000000      13.7555912092      0.4868169807      0.0000000000
0.4846719364       155378.5844866533      0.2040000000      13.7244210306      0.4969834715      0.0000000000
0.4944138253       141386.2579317801      0.2060000000      13.6949618303      0.5073136684      0.0000000000
0.5042974845       128708.8769579907      0.2080000000      13.6671440059      0.5178079139      0.0000000000
0.5143224964       117219.0046081354      0.2100000000      13.6409009025      0.5284663773      0.0000000000
0.5244882698       106801.8870386539      0.2120000000      13.6161685140      0.5392890510      0.0000000000
0.5347940400        97354.1743971070      0.2140000000      13.5928854745      0.5502757501      0.0000000000
0.5452388677        88782.7282139913      0.2160000000      13.5709926764      0.5614261096      0.0000000000
0.5558216411        81003.5689736968      0.2180000000      13.5504331997      0.5727395859      0.0000000000
0.5665410741        73941.0050545667      0.2200000000      13.5311522224      0.5842154526      0.0000000000
0.5773957095        67526.7500673495      0.2220000000      13.5130967692      0.5958528032      0.0000000000
0.5883839202        61699.1816362926      0.2240000000      13.4962156506      0.6076505512      0.0000000000
0.5995039117        56402.6999313159      0.2260000000      13.4804594341      0.6196074300      0.0000000000
0.6107537241        51587.1036053107      0.2280000000      13.4657802561      0.6317219954      0.0000000000
0.6221312363        47207.0623829685      0.2300000000      13.4521317249      0.6439926269      0.0000000000
0.6336341687        43221.6357221417      0.2320000000      13.4394689803      0.6564175301      0.0000000000
0.6452600878        39593.8327097923      0.2340000000      13.4277484893      0.6689947396      0.0000000000
0.6570064104        36290.2325397232      0.2360000000      13.4169280565      0.6817221220      0.0000000000
0.6688704084        33280.6210415446      0.2380000000      13.4069668011      0.6945973798      0.0000000000
0.6808492139        30537.6833560081      0.2400000000      13.3978250179      0.7076180551      0.0000000000
0.6929398248        28036.7186326225      0.2420000000      13.3894642162      0.7207815341      0.0000000000
0.7051391107        25755.3868298363      0.2440000000      13.3818470497      0.7340850517      0.0000000000
0.7174438188        23673.4729193977      0.2460000000      13.3749373244      0.7475256971      0.0000000000
0.7298505799        21772.6832716470      0.2480000000      13.3686998537      0.7611004179      0.0000000000
0.7423559156        20036.4616667613      0.2500000000      13.3631005842      0.7748060271      0.0000000000
0.7549562451        18449.8124552570      0.2520000000      13.3581065263      0.7886392090      0.0000000000
0.7676478909        16999.1613640431      0.2540000000      13.3536856046      0.8025965237      0.0000000000
0.7804270874        15672.2074301828      0.2560000000      13.3498067610      0.8166744153      0.0000000000
0.7932899871        14457.8056284389      0.2580000000      13.3464399800      0.8308692176      0.0000000000
0.8062326686        13345.8534904955      0.2600000000      13.3435561501      0.8451771610      0.0000000000
0.8192511431        12327.1915250952      0.2620000000      13.3411270950      0.8595943794      0.0000000000
0.8323413620        11393.5158186815      0.2640000000      13.3391255248      0.8741169166      0.0000000000
0.8454992248        10537.2894312239      0.2660000000      13.3375250973      0.8887407341      0.0000000000
0.8587205856         9751.6755243356      0.2680000000      13.3363003201      0.9034617176      0.0000000000
0.8720012613         9030.4665883434      0.2700000000      13.3354266089      0.9182756849      0.0000000000
0.8853370377         8368.0270567986      0.2720000000      13.3348801866      0.9331783917      0.0000000000
0.8987236779         7759.2373745471      0.2740000000      13.3346381383      0.9481655401      0.0000000000
0.9121569282         7199.4454760150      0.2760000000      13.3346783265      0.9632327848      0.0000000000
0.9256325257         6684.4233439061      0.2780000000      13.3349794821      0.9783757407      0.0000000000
0.9391462047         6210.3264561242      0.2800000000      13.3355210963      0.9935899892      0.0000000000
0.9526937032         5773.6578667739      0.2820000000      13.3362834286      1.0088710855      0.0000000000
0.9662707696         5371.2352464814      0.2840000000      13.3372474964      1.0242145653      0.0000000000
0.9798731689         5000.1617096877      0.2860000000      13.3383950827      1.0396159516      0.0000000000
0.9934966880         4657.7995148269      0.2880000000      13.3397086683      1.0550707603      0.0000000000
1.0071371422         4341.7459435499      0.2900000000      13.3411714322      1.0705745074      0.0000000000
1.0207903805         4049.8107950598      0.2920000000      13.3427673130      1.0861227149      0.0000000000
1.0344522905         3779.9969056490      0.2940000000      13.3444808349      1.1017109163      0.0000000000
1.0481188044         3530.4832267697      0.2960000000      13.3462973063      1.1173346635      0.0000000000
1.0617859021         3299.6078449413      0.2980000000      13.3482025420      1.1329895301      0.0000000000
1.0754496176         3085.8538713758      0.3000000000      13.3501831072      1.1486711192      0.0000000000
1.0891060418         2887.8355761850      0.3020000000      13.3522260970      1.1643750670      0.0000000000
1.1027513275         2704.2869214056      0.3040000000      13.3543192538      1.1800970482      0.0000000000
1.1163816923         2534.0508050691      0.3060000000      13.3564508922      1.1958327805      0.0000000000
1.1299934232         2376.0690772283      0.3080000000      13.3586098717      1.2115780292      0.0000000000
1.1435828772         2229.3734732473      0.3100000000      13.3607855974      1.2273286098      0.0000000000
1.1571464879         2093.0777230401      0.3120000000      13.3629680672      1.2430803950      0.0000000000
1.1706807656         1966.3703180629      0.3140000000      13.3651477195      1.2588293156      0.0000000000
1.1841823003         1848.5077452476      0.3160000000      13.3673155330      1.2745713655      0.0000000000
1.1976477645         1738.8085039608      0.3180000000      13.3694629737      1.2903026040      0.0000000000
1.2110739141         1636.6475544160      0.3200000000      13.3715819444      1.3060191593      0.0000000000
1.2244575909         1541.4514566262      0.3220000000      13.3736648504      1.3217172311      0.0000000000
1.2377957236         1452.6939695371      0.3240000000      13.3757045026      1.3373930927      0.0000000000
1.2510853323         1369.8916260990      0.3260000000      13.3776941143      1.3530430976      0.0000000000
1.2643235175         1292.6003558672      0.3280000000      13.3796273616      1.3686636666      0.0000000000
1.2775074784         1220.4118645340      0.3300000000      13.3814982889      1.3842513114      0.0000000000
1.2906345023         1152.9506664762      0.3320000000      13.3833013023      1.3998026216      0.0000000000
1.3037019674         1089.8712348747      0.3340000000      13.3850311977      1.4153142700      0.0000000000
1.3167073434         1030.8554913889      0.3360000000      13.3866831102      1.4307830141      0.0000000000
1.3296481912          975.6104441346      0.3380000000      13.3882525267      1.4462056963      0.0000000000
1.3425221630          923.8661318539      0.3400000000      13.3897352343      1.4615792454      0.0000000000
1.3553270020          875.3736068373      0.3420000000      13.3911273422      1.4769006769      0.0000000000
1.3680605422          829.9032871651      0.3440000000      13.3924252715      1.4921670938      0.0000000000
1.3807207072          787.2432504863      0.3460000000      13.3936257070      1.5073756867      0.0000000000
1.3933055102          747.1978006920      0.3480000000      13.3947256374      1.5225237342      0.0000000000
1.4058130529          709.5861768405      0.3500000000      13.3957222839      1.5376086026      0.0000000000
1.4182415241          674.2413052644      0.3520000000      13.3966131236      1.5526277457      0.0000000000
1.4305891997          641.0087089232      0.3540000000      13.3973958983      1.5675787051      0.0000000000
1.4428544406          609.7454106007      0.3560000000      13.3980685334      1.5824591095      0.0000000000
1.4550356920          580.3191336610      0.3580000000      13.3986292161      1.5972666741      0.0000000000
1.4671314819          552.6072789444      0.3600000000      13.3990763314      1.6119992003      0.0000000000
1.4791404198          526.4963216507      0.3620000000      13.3994084383      1.6266545744      0.0000000000
1.4910611951          501.8810218058      0.3640000000      13.3996243152      1.6412307675      0.0000000000
1.5028925758          478.6637311519      0.3660000000      13.3997229024      1.6557258342      0.0000000000
1.5146334068          456.7538675605      0.3680000000      13.3997033205      1.6701379116      0.0000000000
1.5262826083          436.0673144488      0.3700000000      13.3995648316      1.6844652185      0.0000000000
1.5378391744          416.5259505584      0.3720000000      13.3993068796      1.6987060541      0.0000000000
1.5493021686          398.0571750569      0.3740000000      13.3989290457      1.7128587940      0.0000000000
1.5606707315          380.5934886628      0.3760000000      13.3984310144      1.7269218999      0.0000000000
1.5719440658          364.0720920318      0.3780000000      13.3978126583      1.7408939023      0.0000000000
1.5831214429          348.4345787720      0.3800000000      13.3970739352      1.7547734093      0.0000000000
1.5942021993          333.6264908541      0.3820000000      13.3962149186      1.7685591031      0.0000000000
1.6051857348          319.5971971261      0.3840000000      13.3952358105      1.7822497386      0.0000000000
1.6160715106          306.2994178548      0.3860000000      13.3941368949      1.7958441414      0.0000000000
1.6268590476          293.6891152466      0.3880000000      13.3929185779      1.8093412069      0.0000000000
1.6375479244          281.7252153360      0.3900000000      13.3915813324      1.8227398982      0.0000000000
1.6481377759          270.3693541412      0.3920000000      13.3901257223      1.8360392454      0.0000000000
1.6586282912          259.5857300546      0.3940000000      13.3885524024      1.8492383430      0.0000000000
1.6690192119          249.3408892695      0.3960000000      13.3868620901      1.8623363492      0.0000000000
1.6793103307          239.6035682666      0.3980000000      13.3850555795      1.8753324841      0.0000000000
1.6895014890          230.3445410394      0.4000000000      13.3831337252      1.8882260277      0.0000000000
1.6995925759          221.5364602336      0.4020000000      13.3810974511      1.9010163190      0.0000000000
1.7095835259          213.1537362932      0.4040000000      13.3789477104      1.9137027539      0.0000000000
1.7194743178          205.1723938622      0.4060000000      13.3766855508      1.9262847841      0.0000000000
1.7292649725          197.5700081534      0.4080000000      13.3743120348      1.9387619150      0.0000000000
1.7389555519          190.3255265945      0.4100000000      13.3718282816      1.9511337047      0.0000000000
1.7485461570          183.4192406679      0.4120000000      13.3692354499      1.9633997618      0.0000000000
1.7580369264          176.8326457133      0.4140000000      13.3665347361      1.9755597447      0.0000000000
1.7674280349          170.5483888056      0.4160000000      13.3637273638      1.9876133595      0.0000000000
1.7767196916          164.5501801988      0.4180000000      13.3608145961      1.9995603584      0.0000000000
1.7859121391          158.8227078174      0.4200000000      13.3577977279      2.0114005388      0.0000000000
1.7950056516          153.3515996428      0.4220000000      13.3546780606      2.0231337415      0.0000000000
1.8040005334          148.1233417551      0.4240000000      13.3514569321      2.0347598488      0.0000000000
1.8128971179          143.1252315071      0.4260000000      13.3481356992      2.0462787842      0.0000000000
1.8216957663          138.3452941742      0.4280000000      13.3447157468      2.0576905102      0.0000000000
1.8303968656          133.7722942243      0.4300000000      13.3411984590      2.0689950266      0.0000000000
1.8390008284          129.3956301071      0.4320000000      13.3375852166      2.0801923702      0.0000000000
1.8475080907          125.2053241693      0.4340000000      13.3338774581      2.0912826127      0.0000000000
1.8559191112          121.1919766396      0.4360000000      13.3300766035      2.1022658596      0.0000000000
1.8642343703          117.3467185477      0.4380000000      13.3261840648      2.1131422491      0.0000000000
1.8724543684          113.6611939158      0.4400000000      13.3222012967      2.1239119505      0.0000000000
1.8805796251          110.1275189905      0.4420000000      13.3181297323      2.1345751632      0.0000000000
1.8886106784          106.7382496225      0.4440000000      13.3139708198      2.1451321156      0.0000000000
1.8965480833          103.4863561058      0.4460000000      13.3097259865      2.1555830640      0.0000000000
1.9043924109          100.3652036053      0.4480000000      13.3053966954      2.1659282908      0.0000000000
1.9121442475           97.3685228841      0.4500000000      13.3009843850      2.1761681043      0.0000000000
1.9198041936           94.4903831456      0.4520000000      13.2964904897      2.1863028371      0.0000000000
1.9273728630           91.7251817509      0.4540000000      13.2919164477      2.1963328450      0.0000000000
1.9348508819           89.0676163147      0.4560000000      13.2872636969      2.2062585063      0.0000000000
1.9422388882           86.5126680190      0.4580000000      13.2825336522      2.2160802205      0.0000000000
1.9495375305           84.0555889966      0.4600000000      13.2777277442      2.2257984075      0.0000000000
1.9567474676           81.6918820635      0.4620000000      13.2728473807      2.2354135067      0.0000000000
1.9638693671           79.4172858334      0.4640000000      13.2678939693      2.2449259755      0.0000000000
