# M(M_sol)                 Lambda          n_Bc(fm^-3)         R(km)            m_B(M_sol)        m_Bquar/M_B
0.1529467384     10626289.7393815815      0.1680000000      16.7201827706      0.1531871502      0.0000000000
0.1599285554      8475542.9070458692      0.1700000000      16.1342287626      0.1602760229      0.0000000000
0.1672416538      6790505.2866299786      0.1720000000      15.6253205470      0.1677100977      0.0000000000
0.1748833572      5464299.2168524852      0.1740000000      15.1818678780      0.1754877797      0.0000000000
0.1828509533      4415931.4987589866      0.1760000000      14.7943385079      0.1836074645      0.0000000000
0.1911415520      3583642.2358234175      0.1780000000      14.4548211645      0.1920673912      0.0000000000
0.1997524782      2920141.5065322034      0.1800000000      14.1567505105      0.2008660433      0.0000000000
0.2086808533      2389031.0311099016      0.1820000000      13.8946156346      0.2100017190      0.0000000000
0.2179238553      1962189.2813822904      0.1840000000      13.6637879067      0.2194727961      0.0000000000
0.2274782338      1617782.7966831306      0.1860000000      13.4603196297      0.2292772320      0.0000000000
0.2373407198      1338811.8602302612      0.1880000000      13.2808601287      0.2394129825      0.0000000000
0.2475081955      1111995.2836402662      0.1900000000      13.1225733552      0.2498781762      0.0000000000
0.2579769244       926891.5498539776      0.1920000000      12.9829838246      0.2606703151      0.0000000000
0.2687432729       775283.6174680457      0.1940000000      12.8599815838      0.2717870208      0.0000000000
0.2798030359       650664.1851205727      0.1960000000      12.7517051240      0.2832253345      0.0000000000
0.2911521392       547875.6778011908      0.1980000000      12.6565653081      0.2949824347      0.0000000000
0.3027861432       462806.5186870257      0.2000000000      12.5731622871      0.3070551278      0.0000000000
0.3147002160       392167.2577943485      0.2020000000      12.5002535675      0.3194398144      0.0000000000
0.3268896202       333323.1786651332      0.2040000000      12.4367749115      0.3321329884      0.0000000000
0.3393490000       284148.5178344364      0.2060000000      12.3817529086      0.3451304983      0.0000000000
0.3520731014       242929.5095201428      0.2080000000      12.3343544137      0.3584282856      0.0000000000
0.3650562626       208275.5919190289      0.2100000000      12.2938240908      0.3720218609      0.0000000000
0.3782926860       179056.4096987114      0.2120000000      12.2594968017      0.3859065729      0.0000000000
0.3917761346       154348.5788934563      0.2140000000      12.2307583731      0.4000772961      0.0000000000
0.4055003272       133397.6496558894      0.2160000000      12.2070726185      0.4145288356      0.0000000000
0.4194589919       115585.3927822597      0.2180000000      12.1879769423      0.4292559844      0.0000000000
0.4336452199       100400.6132125274      0.2200000000      12.1730167398      0.4442528369      0.0000000000
0.4480522752        87422.9088905299      0.2220000000      12.1618119179      0.4595136409      0.0000000000
0.4626730245        76303.2381803615      0.2240000000      12.1539994550      0.4750321896      0.0000000000
0.4775003915        66752.6233440922      0.2260000000      12.1492690252      0.4908023064      0.0000000000
0.4925268691        58529.4795972064      0.2280000000      12.1473144310      0.5068173105      0.0000000000
0.5077452222        51433.3736176410      0.2300000000      12.1478924928      0.5230707795      0.0000000000
0.5231475899        45295.1937840403      0.2320000000      12.1507377915      0.5395555707      0.0000000000
0.5387264612        39974.1405779389      0.2340000000      12.1556470175      0.5562648752      0.0000000000
0.5544739482        35351.2147115485      0.2360000000      12.1624117717      0.5731914297      0.0000000000
0.5703822003        31326.2590537261      0.2380000000      12.1708496381      0.5903279604      0.0000000000
0.5864432868        27814.6175376037      0.2400000000      12.1807930281      0.6076670545      0.0000000000
0.6026492159        24744.5581615762      0.2420000000      12.1920873501      0.6252011780      0.0000000000
0.6189919587        22055.1802907518      0.2440000000      12.2045908325      0.6429226998      0.0000000000
0.6354635568        19694.7700119321      0.2460000000      12.2181819680      0.6608240086      0.0000000000
0.6520557838        17618.9558815609      0.2480000000      12.2327259953      0.6788971394      0.0000000000
0.6687606655        15790.0697514657      0.2500000000      12.2481208906      0.6971343391      0.0000000000
0.6855702251        14175.8331391633      0.2520000000      12.2642718340      0.7155277910      0.0000000000
0.7024762436        12748.3411489504      0.2540000000      12.2810667732      0.7340693480      0.0000000000
0.7194709705        11483.9176013283      0.2560000000      12.2984412533      0.7527513119      0.0000000000
0.7365463437        10361.9146674725      0.2580000000      12.3163036143      0.7715655750      0.0000000000
0.7536945760         9364.6498933605      0.2600000000      12.3345884221      0.7905042674      0.0000000000
0.7709077526         8476.7177744481      0.2620000000      12.3532170712      0.8095593068      0.0000000000
0.7881783363         7684.9352609344      0.2640000000      12.3721442493      0.8287229681      0.0000000000
0.8054985956         6977.7090197664      0.2660000000      12.3913022875      0.8479872352      0.0000000000
0.8228609941         6345.0143043785      0.2680000000      12.4106368779      0.8673442436      0.0000000000
0.8402581609         5778.1425316402      0.2700000000      12.4301033464      0.8867862456      0.0000000000
0.8576828187         5269.4859162406      0.2720000000      12.4496585972      0.9063055293      0.0000000000
0.8751277604         4812.3785383522      0.2740000000      12.4692576902      0.9258943933      0.0000000000
0.8925859215         4400.9937450897      0.2760000000      12.4888600632      0.9455452299      0.0000000000
0.9100504360         4030.2384815678      0.2780000000      12.5084341595      0.9652505856      0.0000000000
0.9275146087         3695.6499293132      0.2800000000      12.5279539759      0.9850031373      0.0000000000
0.9449717225         3393.2581868997      0.2820000000      12.5473791893      1.0047954667      0.0000000000
0.9624154245         3119.6207071977      0.2840000000      12.5666928490      1.0246205091      0.0000000000
0.9798393600         2871.6624966074      0.2860000000      12.5858643586      1.0444711299      0.0000000000
0.9972373918         2646.6813740664      0.2880000000      12.6048707745      1.0643403814      0.0000000000
1.0146035588         2442.2891767084      0.2900000000      12.6236922279      1.0842214548      0.0000000000
1.0319320609         2256.3694757308      0.2920000000      12.6423100838      1.1041076664      0.0000000000
1.0492172696         2087.0445724992      0.2940000000      12.6607074957      1.1239924690      0.0000000000
1.0664537057         1932.6446231900      0.2960000000      12.6788669319      1.1438694315      0.0000000000
1.0836361220         1791.6923653361      0.2980000000      12.6967784137      1.1637323338      0.0000000000
1.1007593895         1662.8634302119      0.3000000000      12.7144275585      1.1835750357      0.0000000000
1.1178185289         1544.9751222644      0.3020000000      12.7317984551      1.2033915187      0.0000000000
1.1348088099         1436.9803605210      0.3040000000      12.7488842360      1.2231760021      0.0000000000
1.1517256568         1337.9406065753      0.3060000000      12.7656770693      1.2429228355      0.0000000000
1.1685646279         1247.0111360684      0.3080000000      12.7821656888      1.2626264755      0.0000000000
1.1853215156         1163.4416149129      0.3100000000      12.7983463115      1.2822816074      0.0000000000
1.2019922217         1086.5523363427      0.3120000000      12.8142091761      1.3018829982      0.0000000000
1.2185728791         1015.7385127658      0.3140000000      12.8297518000      1.3214256453      0.0000000000
1.2350597619          950.4535704859      0.3160000000      12.8449694402      1.3409046694      0.0000000000
1.2514492615          890.2012045247      0.3180000000      12.8598522511      1.3603152889      0.0000000000
1.2677380725          834.5455554895      0.3200000000      12.8744064639      1.3796530480      0.0000000000
1.2839229428          783.0839938516      0.3220000000      12.8886266080      1.3989135131      0.0000000000
1.3000007630          735.4521241838      0.3240000000      12.9025055098      1.4180923863      0.0000000000
1.3159686305          691.3237963188      0.3260000000      12.9160419400      1.4371855834      0.0000000000
1.3318238813          650.4091129969      0.3280000000      12.9292448417      1.4561892784      0.0000000000
1.3475638103          612.4332453188      0.3300000000      12.9421010280      1.4750995606      0.0000000000
1.3631860803          577.1596706095      0.3320000000      12.9546232042      1.4939129376      0.0000000000
1.3786882933          544.3621755702      0.3340000000      12.9668000125      1.5126258141      0.0000000000
1.3940683190          513.8419921168      0.3360000000      12.9786350347      1.5312348959      0.0000000000
1.4093241623          485.4176627683      0.3380000000      12.9901316577      1.5497370270      0.0000000000
1.4244539783          458.9248524391      0.3400000000      13.0012951834      1.5681292159      0.0000000000
1.4394559697          434.2095090806      0.3420000000      13.0121208595      1.5864085037      0.0000000000
1.4543285539          411.1352140868      0.3440000000      13.0226143744      1.6045721792      0.0000000000
1.4690701840          389.5734130698      0.3460000000      13.0327705551      1.6226175539      0.0000000000
1.4836796088          369.4135340379      0.3480000000      13.0426057436      1.6405422892      0.0000000000
1.4981554849          350.5462747614      0.3500000000      13.0521103274      1.6583439159      0.0000000000
1.5124966829          332.8753319794      0.3520000000      13.0612869510      1.6760202156      0.0000000000
1.5267022888          316.3160375239      0.3540000000      13.0701515312      1.6935692271      0.0000000000
1.5407712918          300.7836687799      0.3560000000      13.0786941797      1.7109888545      0.0000000000
1.5547028920          286.2040751497      0.3580000000      13.0869184483      1.7282772552      0.0000000000
1.5684964818          272.5119944851      0.3600000000      13.0948397651      1.7454328215      0.0000000000
1.5821513648          259.6415878157      0.3620000000      13.1024496242      1.7624538218      0.0000000000
1.5956670771          247.5364562308      0.3640000000      13.1097573835      1.7793388124      0.0000000000
1.6090431792          236.1428494102      0.3660000000      13.1167638336      1.7960863758      0.0000000000
1.6222793569          225.4121022562      0.3680000000      13.1234747906      1.8126952456      0.0000000000
1.6353753717          215.2992006620      0.3700000000      13.1298949979      1.8291642496      0.0000000000
1.6483310555          205.7622721285      0.3720000000      13.1360278316      1.8454923014      0.0000000000
1.6611462888          196.7620331427      0.3740000000      13.1418727362      1.8616783750      0.0000000000
1.6738211079          188.2639963273      0.3760000000      13.1474401749      1.8777216422      0.0000000000
1.6863555507          180.2347018171      0.3780000000      13.1527312060      1.8936212768      0.0000000000
1.6987497369          172.6434586198      0.3800000000      13.1577486105      1.9093765575      0.0000000000
1.7110039129          165.4631721951      0.3820000000      13.1625037381      1.9249869296      0.0000000000
1.7231182714          158.6663016379      0.3840000000      13.1669918465      1.9404517691      0.0000000000
1.7350931273          152.2285807962      0.3860000000      13.1712167465      1.9557706132      0.0000000000
1.7469289192          146.1287790534      0.3880000000      13.1751917357      1.9709431646      0.0000000000
1.7586260299          140.3450567056      0.3900000000      13.1789146234      1.9859690552      0.0000000000
1.7701849414          134.8580367881      0.3920000000      13.1823898833      2.0008480523      0.0000000000
1.7816061875          129.6497463214      0.3940000000      13.1856224426      2.0155799961      0.0000000000
1.7928903491          124.7034466957      0.3960000000      13.1886172557      2.0301647938      0.0000000000
1.8040380325          120.0032943753      0.3980000000      13.1913765641      2.0446023938      0.0000000000
1.8150499111          115.5348615983      0.4000000000      13.1939062856      2.0588928371      0.0000000000
1.8259266757          111.2843995817      0.4020000000      13.1962090976      2.0730361966      0.0000000000
1.8366690852          107.2395366995      0.4040000000      13.1982922074      2.0870326425      0.0000000000
1.8472778747          103.3878825937      0.4060000000      13.2001540061      2.1008823220      0.0000000000
1.8577538652           99.7185803055      0.4080000000      13.2018007975      2.1145855032      0.0000000000
1.8680979100           96.2215407774      0.4100000000      13.2032389681      2.1281425081      0.0000000000
1.8783108723           92.8870670706      0.4120000000      13.2044721050      2.1415536811      0.0000000000
1.8883936367           89.7059714141      0.4140000000      13.2055028262      2.1548194025      0.0000000000
1.8983471098           86.6696284256      0.4160000000      13.2063331168      2.1679400922      0.0000000000
1.9081722676           83.7705773908      0.4180000000      13.2069720471      2.1809162766      0.0000000000
1.9178700313           81.0008197572      0.4200000000      13.2074167220      2.1937484138      0.0000000000
1.9274414178           78.3537964343      0.4220000000      13.2076759079      2.2064371045      0.0000000000
1.9368874099           75.8227186458      0.4240000000      13.2077500781      2.2189829126      0.0000000000
1.9462090456           73.4016816585      0.4260000000      13.2076456074      2.2313864894      0.0000000000
1.9554073420           71.0846673024      0.4280000000      13.2073629943      2.2436484655      0.0000000000
1.9644833848           68.8666774171      0.4300000000      13.2069113410      2.2557695801      0.0000000000
1.9734381964           66.7421512684      0.4320000000      13.2062874392      2.2677504939      0.0000000000
1.9822728791           64.7065784667      0.4340000000      13.2054989150      2.2795919891      0.0000000000
1.9909884899           62.7551660336      0.4360000000      13.2045443391      2.2912947982      0.0000000000
1.9995861713           60.8841341188      0.4380000000      13.2034345365      2.3028597821      0.0000000000
2.0080669954           59.0891541069      0.4400000000      13.2021674793      2.3142877155      0.0000000000
2.0164320962           57.3666763927      0.4420000000      13.2007500252      2.3255794718      0.0000000000
2.0246825768           55.7130089406      0.4440000000      13.1991828064      2.3367358925      0.0000000000
2.0328195545           54.1247418292      0.4460000000      13.1974678555      2.3477578500      0.0000000000
2.0408441546           52.5986969511      0.4480000000      13.1956076997      2.3586462401      0.0000000000
2.0487575469           51.1322294135      0.4500000000      13.1936118050      2.3694020331      0.0000000000
2.0565608319           49.7222066556      0.4520000000      13.1914773838      2.3800261120      0.0000000000
2.0642551519           48.3660368253      0.4540000000      13.1892083213      2.3905194332      0.0000000000
2.0718416555           47.0612823321      0.4560000000      13.1868093767      2.4008829711      0.0000000000
2.0793214663           45.8054465496      0.4580000000      13.1842808716      2.4111176776      0.0000000000
2.0866957353           44.5963852771      0.4600000000      13.1816278849      2.4212245551      0.0000000000
2.0939655914           43.4319019630      0.4620000000      13.1788517268      2.4312045862      0.0000000000
2.1011321836           42.3100771614      0.4640000000      13.1759574691      2.4410587935      0.0000000000
2.1081966146           41.2287781688      0.4660000000      13.1729423099      2.4507881460      0.0000000000
2.1151600577           40.1864979566      0.4680000000      13.1698164283      2.4603937234      0.0000000000
2.1220235986           39.1812233583      0.4700000000      13.1665748946      2.4698764936      0.0000000000
2.1287883915           38.2115372753      0.4720000000      13.1632256647      2.4792375323      0.0000000000
2.1354555427           37.2757998844      0.4740000000      13.1597687906      2.4884778586      0.0000000000
2.1420261754           36.3725995744      0.4760000000      13.1562081275      2.4975985271      0.0000000000
2.1485013938           35.5005035246      0.4780000000      13.1525450333      2.5066005761      0.0000000000
2.1548823090           34.6582284184      0.4800000000      13.1487829846      2.5154850646      0.0000000000
2.1611699995           33.8443851284      0.4820000000      13.1449204842      2.5242530164      0.0000000000
2.1673655914           33.0579970170      0.4840000000      13.1409659919      2.5329055345      0.0000000000
2.1734701452           32.2977551590      0.4860000000      13.1369168664      2.5414436372      0.0000000000
2.1794847486           31.5626303610      0.4880000000      13.1327768143      2.5498683931      0.0000000000
2.1854104892           30.8516880740      0.4900000000      13.1285507344      2.5581808827      0.0000000000
2.1912484062           30.1637892066      0.4920000000      13.1242358478      2.5663821247      0.0000000000
2.1969995714           29.4980827808      0.4940000000      13.1198368228      2.5744731962      0.0000000000
2.2026650240           28.8536194241      0.4960000000      13.1153535988      2.5824551371      0.0000000000
2.2082458220           28.2296464069      0.4980000000      13.1107911697      2.5903290255      0.0000000000
2.2137429953           27.6253275673      0.5000000000      13.1061507586      2.5980959072      0.0000000000
2.2191575647           27.0398667567      0.5020000000      13.1014332979      2.6057568250      0.0000000000
2.2244905533           26.4725681241      0.5040000000      13.0966418261      2.6133128361      0.0000000000
2.2297429617           25.9226824272      0.5060000000      13.0917766633      2.6207649723      0.0000000000
2.2349158036           25.3896168799      0.5080000000      13.0868423494      2.6281142953      0.0000000000
2.2400100531           24.8726481781      0.5100000000      13.0818373689      2.6353618182      0.0000000000
2.2450266957           24.3711832138      0.5120000000      13.0767641697      2.6425085793      0.0000000000
2.2499667107           23.8846746893      0.5140000000      13.0716257916      2.6495556171      0.0000000000
2.2548310615           23.4125647217      0.5160000000      13.0664238908      2.6565039561      0.0000000000
2.2596206962           22.9542892411      0.5180000000      13.0611588691      2.6633546065      0.0000000000
2.2643365547           22.5093213806      0.5200000000      13.0558313500      2.6701085761      0.0000000000
2.2689795916           22.0772626461      0.5220000000      13.0504467499      2.6767669018      0.0000000000
2.2735507203           21.6575833068      0.5240000000      13.0450040561      2.6833305681      0.0000000000
2.2780508561           21.2498396863      0.5260000000      13.0395045525      2.6898005723      0.0000000000
