# M(M_sol)                 Lambda          n_Bc(fm^-3)         R(km)            m_B(M_sol)        m_Bquar/M_B
0.1546477347     47232491.3359849676      0.0850000000      23.8451559200      0.1549199898      0.0000000000
0.1609684763     39299700.5036508590      0.0870000000      22.9096183711      0.1613319496      0.0000000000
0.1672981593     33006458.1258599758      0.0890000000      22.1166184160      0.1677585309      0.0000000000
0.1736349073     27942369.3671435975      0.0910000000      21.4362475051      0.1741977940      0.0000000000
0.1799780370     23818760.1048065610      0.0930000000      20.8463138793      0.1806490152      0.0000000000
0.1863278564     20426793.9827824533      0.0950000000      20.3300181054      0.1871124848      0.0000000000
0.1926855121     17611915.8182869107      0.0970000000      19.8744172712      0.1935893539      0.0000000000
0.1990528677     15257665.2105261963      0.0990000000      19.4693883981      0.2000815139      0.0000000000
0.2054324028     13274882.4272816535      0.1010000000      19.1069048215      0.2065914952      0.0000000000
0.2118271331     11594421.3476388752      0.1030000000      18.7805260177      0.2131223878      0.0000000000
0.2182405409     10162032.3132727649      0.1050000000      18.4850282548      0.2196777717      0.0000000000
0.2246765173      8934711.3803331144      0.1070000000      18.2161337968      0.2262616598      0.0000000000
0.2311393058      7878069.9293902563      0.1090000000      17.9703091032      0.2328784412      0.0000000000
0.2376334619      6964374.5211238461      0.1110000000      17.7446129299      0.2395328415      0.0000000000
0.2441489567      6172765.4732236862      0.1130000000      17.5370316816      0.2462146406      0.0000000000
0.2505620711      5496742.6397565184      0.1150000000      17.3489815700      0.2527968508      0.0000000000
0.2569339970      4910943.9639794622      0.1170000000      17.1762886385      0.2593420923      0.0000000000
0.2632947129      4398961.9722361872      0.1190000000      17.0164202717      0.2658810901      0.0000000000
0.2696605271      3948935.2661759015      0.1210000000      16.8676270801      0.2724305999      0.0000000000
0.2760437311      3551554.6829909603      0.1230000000      16.7285386245      0.2790032944      0.0000000000
0.2824547966      3199295.6168946531      0.1250000000      16.5980350670      0.2856100118      0.0000000000
0.2889031990      2885974.4396935492      0.1270000000      16.4751822680      0.2922605982      0.0000000000
0.2953977999      2606455.2510632291      0.1290000000      16.3591915851      0.2989642992      0.0000000000
0.3019470490      2356429.4796073227      0.1310000000      16.2493906824      0.3057299655      0.0000000000
0.3085590970      2132257.3929688740      0.1330000000      16.1452025702      0.3125661694      0.0000000000
0.3152418664      1930845.2354742356      0.1350000000      16.0461302300      0.3194812768      0.0000000000
0.3220030949      1749545.1713220580      0.1370000000      15.9517425756      0.3264834925      0.0000000000
0.3288503574      1586080.9131432110      0.1390000000      15.8616655497      0.3335808822      0.0000000000
0.3357910865      1438484.5654226930      0.1410000000      15.7755729229      0.3407813948      0.0000000000
0.3428325782      1305047.7918567008      0.1430000000      15.6931797825      0.3480928679      0.0000000000
0.3499819968      1184280.1407984330      0.1450000000      15.6142368698      0.3555230339      0.0000000000
0.3572463743      1074876.2395624302      0.1470000000      15.5385254834      0.3630795189      0.0000000000
0.3646326097       975687.9619212355      0.1490000000      15.4658534651      0.3707698434      0.0000000000
0.3721474575       885702.1009433110      0.1510000000      15.3960519273      0.3786014103      0.0000000000
0.3797975280       804020.8845526156      0.1530000000      15.3289720161      0.3865815061      0.0000000000
0.3875892722       729846.3579665568      0.1550000000      15.2644822100      0.3947172849      0.0000000000
0.3955289760       662466.9046669017      0.1570000000      15.2024664345      0.4030157638      0.0000000000
0.4036227538       601246.0387845080      0.1590000000      15.1428216557      0.4114838159      0.0000000000
0.4118765080       545612.9789279375      0.1610000000      15.0854564551      0.4201281288      0.0000000000
0.4202959613       495054.2703522604      0.1630000000      15.0302892710      0.4289552385      0.0000000000
0.4288866102       449107.2046955570      0.1650000000      14.9772470365      0.4379714806      0.0000000000
0.4376537250       407353.7763632321      0.1670000000      14.9262642995      0.4471829914      0.0000000000
0.4466023285       369415.6781445760      0.1690000000      14.8772816428      0.4565956844      0.0000000000
0.4557371877       334949.8569195890      0.1710000000      14.8302451499      0.4662152424      0.0000000000
0.4650627977       303644.8279362397      0.1730000000      14.7851052724      0.4760470999      0.0000000000
0.4745833655       275217.4126640348      0.1750000000      14.7418162527      0.4860964256      0.0000000000
0.4843028023       249409.8213465632      0.1770000000      14.7003354647      0.4963681142      0.0000000000
0.4942247037       225987.2196159073      0.1790000000      14.6606226533      0.5068667643      0.0000000000
0.5043523436       204735.4900495409      0.1810000000      14.6226395822      0.5175966714      0.0000000000
0.5146886525       185459.3470148301      0.1830000000      14.5863494700      0.5285618039      0.0000000000
0.5252362266       167980.5634821090      0.1850000000      14.5517167005      0.5397658113      0.0000000000
0.5359972934       152136.4719153985      0.1870000000      14.5187063486      0.5512119864      0.0000000000
0.5469737165       137778.6114512199      0.1890000000      14.4872840845      0.5629032688      0.0000000000
0.5581669837       124771.4667607637      0.1910000000      14.4574156296      0.5748422303      0.0000000000
0.5695782041       112991.3380139505      0.1930000000      14.4290668844      0.5870310700      0.0000000000
0.5812080980       102325.4032228484      0.1950000000      14.4022035581      0.5994716008      0.0000000000
0.5930569936        92670.7392377355      0.1970000000      14.3767910596      0.6121652442      0.0000000000
0.6051248254        83933.5166033539      0.1990000000      14.3527944524      0.6251130249      0.0000000000
0.6174111312        76028.2375453917      0.2010000000      14.3301783749      0.6383155660      0.0000000000
0.6299150526        68877.0268916416      0.2030000000      14.3089069859      0.6517730854      0.0000000000
0.6426353345        62409.0038314119      0.2050000000      14.2889439001      0.6654853925      0.0000000000
0.6555703296        56559.6714372944      0.2070000000      14.2702522469      0.6794518901      0.0000000000
0.6687179993        51270.4136800296      0.2090000000      14.2527946376      0.6936715711      0.0000000000
0.6820759224        46487.9540768098      0.2110000000      14.2365333024      0.7081430248      0.0000000000
0.6956412974        42163.9238741650      0.2130000000      14.2214299359      0.7228644353      0.0000000000
0.7094109543        38254.4244753991      0.2150000000      14.2074459848      0.7378335904      0.0000000000
0.7233813588        34719.6487967031      0.2170000000      14.1945424289      0.7530478825      0.0000000000
0.7375486270        31523.5147130078      0.2190000000      14.1826801900      0.7685043202      0.0000000000
0.7519085327        28633.3364476489      0.2210000000      14.1718199351      0.7841995321      0.0000000000
0.7664565212        26019.5263564817      0.2230000000      14.1619221943      0.8001297777      0.0000000000
0.7811877239        23655.3067076305      0.2250000000      14.1529476173      0.8162909597      0.0000000000
0.7960969685        21516.4643928463      0.2270000000      14.1448567731      0.8326786299      0.0000000000
0.8111787981        19581.1084972817      0.2290000000      14.1376105286      0.8492880073      0.0000000000
0.8264274835        17829.4613381698      0.2310000000      14.1311698651      0.8661139864      0.0000000000
0.8418370413        16243.6580379493      0.2330000000      14.1254961308      0.8831511536      0.0000000000
0.8574012499        14807.5689353964      0.2350000000      14.1205510349      0.9003938010      0.0000000000
0.8731136667        13506.6366361092      0.2370000000      14.1162967156      0.9178359408      0.0000000000
0.8889676462        12327.7249130301      0.2390000000      14.1126958433      0.9354713224      0.0000000000
0.9049563585        11258.9840859588      0.2410000000      14.1097117091      0.9532934490      0.0000000000
0.9210728058        10289.7271376606      0.2430000000      14.1073081643      0.9712955920      0.0000000000
0.9373098425         9410.3157709279      0.2450000000      14.1054497951      0.9894708107      0.0000000000
0.9536601911         8612.0627505635      0.2470000000      14.1041019177      1.0078119667      0.0000000000
0.9701164655         7887.1344862821      0.2490000000      14.1032306637      1.0263117468      0.0000000000
0.9866711835         7228.4693666783      0.2510000000      14.1028029656      1.0449626742      0.0000000000
1.0033167875         6629.7025611971      0.2530000000      14.1027866273      1.0637571297      0.0000000000
1.0200456626         6085.0963030708      0.2550000000      14.1031503198      1.0826873688      0.0000000000
1.0368501532         5589.4772981474      0.2570000000      14.1038636351      1.1017455397      0.0000000000
1.0537225812         5138.1830105865      0.2590000000      14.1048971517      1.1209237005      0.0000000000
1.0706552610         4727.0086941746      0.2610000000      14.1062223743      1.1402138354      0.0000000000
1.0876405169         4352.1629388819      0.2630000000      14.1078117732      1.1596078729      0.0000000000
1.1046706989         4010.2256420284      0.2650000000      14.1096387852      1.1790977026      0.0000000000
1.1217381965         3698.1124330177      0.2670000000      14.1116778791      1.1986751898      0.0000000000
1.1388354544         3413.0399629215      0.2690000000      14.1139044774      1.2183321929      0.0000000000
1.1559549852         3152.4955696909      0.2710000000      14.1162949749      1.2380605776      0.0000000000
1.1730893830         2914.2119831992      0.2730000000      14.1188267959      1.2578522323      0.0000000000
1.1902313361         2696.1409401513      0.2750000000      14.1214783072      1.2776990820      0.0000000000
1.2073736378         2496.4325489401      0.2770000000      14.1242288574      1.2975931020      0.0000000000
1.2245091981         2313.4150257533      0.2790000000      14.1270587377      1.3175263313      0.0000000000
1.2416310528         2145.5771864627      0.2810000000      14.1299491991      1.3374908838      0.0000000000
1.2587323746         1991.5522067032      0.2830000000      14.1328824092      1.3574789621      0.0000000000
1.2758064797         1850.1037494150      0.2850000000      14.1358414035      1.3774828662      0.0000000000
1.2928468374         1720.1127960055      0.2870000000      14.1388102156      1.3974950058      0.0000000000
1.3098470764         1600.5659959960      0.2890000000      14.1417736315      1.4175079092      0.0000000000
1.3268009914         1490.5453220527      0.2910000000      14.1447173782      1.4375142325      0.0000000000
1.3437025485         1389.2189468200      0.2930000000      14.1476279489      1.4575067676      0.0000000000
1.3605458909         1295.8323508683      0.2950000000      14.1504926639      1.4774784507      0.0000000000
1.3773253425         1209.7011898595      0.2970000000      14.1532996288      1.4974223685      0.0000000000
1.3940354121         1130.2042109743      0.2990000000      14.1560377008      1.5173317652      0.0000000000
1.4106707959         1056.7772519612      0.3010000000      14.1586964411      1.5372000478      0.0000000000
1.4272263802          988.9076675147      0.3030000000      14.1612661908      1.5570207915      0.0000000000
1.4436972434          926.1293953514      0.3050000000      14.1637378923      1.5767877441      0.0000000000
1.4600786562          868.0185089776      0.3070000000      14.1661031767      1.5964948291      0.0000000000
1.4763660837          814.1891820872      0.3090000000      14.1683543383      1.6161361502      0.0000000000
1.4925551847          764.2900138708      0.3110000000      14.1704842222      1.6357059935      0.0000000000
1.5086418115          718.0008394996      0.3130000000      14.1724862941      1.6551988296      0.0000000000
1.5246220092          675.0297799322      0.3150000000      14.1743545639      1.6746093150      0.0000000000
1.5404920147          635.1105181834      0.3170000000      14.1760835907      1.6939322940      0.0000000000
1.5562482548          598.0000122809      0.3190000000      14.1776684242      1.7131627986      0.0000000000
1.5718873443          563.4762658995      0.3210000000      14.1791046073      1.7322960495      0.0000000000
1.5874060841          531.3363958631      0.3230000000      14.1803881510      1.7513274552      0.0000000000
1.6028014581          501.3949017868      0.3250000000      14.1815154997      1.7702526120      0.0000000000
1.6180706305          473.4820221084      0.3270000000      14.1824835285      1.7890673030      0.0000000000
1.6332109428          447.4423708311      0.3290000000      14.1832895063      1.8077674963      0.0000000000
1.6482199102          423.1335959052      0.3310000000      14.1839310736      1.8263493441      0.0000000000
1.6630952185          400.4251573349      0.3330000000      14.1844062537      1.8448091807      0.0000000000
1.6778347196          379.1974023693      0.3350000000      14.1847133757      1.8631435195      0.0000000000
1.6924364280          359.3404672223      0.3370000000      14.1848510981      1.8813490516      0.0000000000
1.7068985170          340.7534742052      0.3390000000      14.1848183985      1.8994226426      0.0000000000
1.7212193142          323.3437268972      0.3410000000      14.1846145352      1.9173613301      0.0000000000
1.7353972970          307.0259918558      0.3430000000      14.1842389899      1.9351623198      0.0000000000
1.7494310890          291.7218521839      0.3450000000      14.1836915635      1.9528229836      0.0000000000
1.7633194549          277.3591270110      0.3470000000      14.1829722541      1.9703408552      0.0000000000
1.7770612962          263.8713220536      0.3490000000      14.1820812792      1.9877136267      0.0000000000
1.7906556472          251.1971478885      0.3510000000      14.1810190740      2.0049391453      0.0000000000
1.8041016698          239.2800850375      0.3530000000      14.1797862644      2.0220154096      0.0000000000
1.8173986494          228.0679627682      0.3550000000      14.1783836234      2.0389405655      0.0000000000
1.8305459907          217.5126288971      0.3570000000      14.1768121610      2.0557129028      0.0000000000
1.8435432124          207.5695791548      0.3590000000      14.1750729831      2.0723308504      0.0000000000
1.8563899445          198.1976828685      0.3610000000      14.1731673314      2.0887929745      0.0000000000
1.8690859201          189.3588724193      0.3630000000      14.1710966442      2.1050979697      0.0000000000
1.8816309761          181.0179354888      0.3650000000      14.1688624119      2.1212446615      0.0000000000
1.8940250459          173.1422533823      0.3670000000      14.1664662738      2.1372319983      0.0000000000
1.9062681554          165.7015892194      0.3690000000      14.1639099612      2.1530590478      0.0000000000
1.9183604199          158.6679248300      0.3710000000      14.1611953090      2.1687249943      0.0000000000
1.9303020386          152.0152587107      0.3730000000      14.1583242027      2.1842291327      0.0000000000
1.9420932924          145.7194502011      0.3750000000      14.1552986552      2.1995708672      0.0000000000
1.9537345382          139.7580866144      0.3770000000      14.1521207193      2.2147497049      0.0000000000
1.9652262065          134.1103264393      0.3790000000      14.1487924943      2.2297652536      0.0000000000
1.9765687970          128.7568039669      0.3810000000      14.1453161818      2.2446172176      0.0000000000
1.9877628749          123.6794964485      0.3830000000      14.1416939843      2.2593053933      0.0000000000
1.9988090682          118.8616255460      0.3850000000      14.1379281802      2.2738296664      0.0000000000
2.0097080632          114.2875606744      0.3870000000      14.1340210614      2.2881900081      0.0000000000
2.0204606020          109.9427463275      0.3890000000      14.1299749627      2.3023864708      0.0000000000
2.0310674790          105.8136006716      0.3910000000      14.1257922533      2.3164191861      0.0000000000
2.0415295377          101.8874546778      0.3930000000      14.1214753133      2.3302883597      0.0000000000
2.0518476679           98.1524884263      0.3950000000      14.1170265464      2.3439942693      0.0000000000
2.0620228025           94.5976523314      0.3970000000      14.1124483522      2.3575372609      0.0000000000
2.0720559151           91.2126344942      0.3990000000      14.1077431707      2.3709177455      0.0000000000
2.0819480170           87.9877852613      0.4010000000      14.1029134313      2.3841361966      0.0000000000
2.0917001544           84.9140834467      0.4030000000      14.0979615575      2.3971931461      0.0000000000
2.1013134065           81.9830840887      0.4050000000      14.0928899872      2.4100891825      0.0000000000
2.1107888827           79.1868794354      0.4070000000      14.0877011480      2.4228249477      0.0000000000
2.1201277200           76.5180646323      0.4090000000      14.0823974694      2.4354011338      0.0000000000
2.1293310815           73.9696931630      0.4110000000      14.0769813482      2.4478184811      0.0000000000
2.1384001533           71.5352584558      0.4130000000      14.0714552075      2.4600777748      0.0000000000
2.1473361434           69.2086512921      0.4150000000      14.0658214285      2.4721798431      0.0000000000
2.1561402793           66.9841397300      0.4170000000      14.0600823821      2.4841255546      0.0000000000
2.1648138057           64.8563398384      0.4190000000      14.0542404393      2.4959158153      0.0000000000
2.1733579837           62.8201899860      0.4210000000      14.0482979229      2.5075515678      0.0000000000
2.1817740883           60.8709388226      0.4230000000      14.0422571711      2.5190337874      0.0000000000
2.1900634067           59.0041138817      0.4250000000      14.0361204689      2.5303634812      0.0000000000
2.1982272375           57.2155072679      0.4270000000      14.0298900991      2.5415416855      0.0000000000
2.2062668883           55.5011585061      0.4290000000      14.0235683197      2.5525694638      0.0000000000
2.2141836749           53.8573388050      0.4310000000      14.0171573338      2.5634479052      0.0000000000
2.2219789198           52.2805327863      0.4330000000      14.0106593742      2.5741781227      0.0000000000
2.2296539505           50.7674302998      0.4350000000      14.0040765978      2.5847612505      0.0000000000
2.2372100992           49.3149057987      0.4370000000      13.9974111519      2.5951984435      0.0000000000
2.2446487008           47.9200148008      0.4390000000      13.9906651641      2.6054908752      0.0000000000
2.2519710922           46.5799750449      0.4410000000      13.9838407200      2.6156397359      0.0000000000
2.2591786108           45.2921609023      0.4430000000      13.9769398795      2.6256462314      0.0000000000
