# M(M_sol)                 Lambda          n_Bc(fm^-3)         R(km)            m_B(M_sol)        m_Bquar/M_B
0.1548010634     37780177.6713610515      0.1000000000      22.6133814755      0.1550532601      0.0000000000
0.1604031874     31694681.7855496854      0.1020000000      21.8021834005      0.1607331545      0.0000000000
0.1661250142     26723237.2840965539      0.1040000000      21.0912610864      0.1665389647      0.0000000000
0.1719612197     22634141.2198355980      0.1060000000      20.4644300669      0.1724655469      0.0000000000
0.1779068561     19250898.6425116546      0.1080000000      19.9087141697      0.1785081283      0.0000000000
0.1839573201     16437009.0025649983      0.1100000000      19.4135981862      0.1846622756      0.0000000000
0.1901083198     14085573.2977787927      0.1120000000      18.9704791432      0.1909238619      0.0000000000
0.1962943534     12129713.6967419144      0.1140000000      18.5759446812      0.1972263624      0.0000000000
0.2024607717     10505301.1329335850      0.1160000000      18.2255771776      0.2035141031      0.0000000000
0.2086528761      9136858.3444915283      0.1180000000      17.9103244065      0.2098332714      0.0000000000
0.2148809674      7975831.9957981855      0.1200000000      17.6248579312      0.2161944463      0.0000000000
0.2211494975      6985369.3912301697      0.1220000000      17.3651102242      0.2226022614      0.0000000000
0.2274607981      6136464.5820642086      0.1240000000      17.1278023096      0.2290591980      0.0000000000
0.2338162066      5405873.3964492055      0.1260000000      16.9102229646      0.2355667275      0.0000000000
0.2402165328      4774749.7567662159      0.1280000000      16.7100967953      0.2421257869      0.0000000000
0.2466622910      4227675.6615885021      0.1300000000      16.5254927004      0.2487370149      0.0000000000
0.2531538202      3751946.3132484541      0.1320000000      16.3547576590      0.2554008728      0.0000000000
0.2596913582      3337026.7714741123      0.1340000000      16.1964661573      0.2621177211      0.0000000000
0.2662750867      2974134.7754957727      0.1360000000      16.0493820091      0.2688878649      0.0000000000
0.2729051570      2655912.8984793811      0.1380000000      15.9124266278      0.2757115803      0.0000000000
0.2795817107      2376169.5650903736      0.1400000000      15.7846545969      0.2825891353      0.0000000000
0.2863048893      2129673.1930959183      0.1420000000      15.6652335059      0.2895208000      0.0000000000
0.2930748431      1911987.1092357961      0.1440000000      15.5534275685      0.2965068559      0.0000000000
0.2998917361      1719334.6011683226      0.1460000000      15.4485836073      0.3035476004      0.0000000000
0.3067557474      1548490.9385669844      0.1480000000      15.3501203754      0.3106433490      0.0000000000
0.3136670751      1396693.3752112328      0.1500000000      15.2575181983      0.3177944390      0.0000000000
0.3206259351      1261568.4716613344      0.1520000000      15.1703117344      0.3250012282      0.0000000000
0.3276325611      1141071.2899729868      0.1540000000      15.0880826786      0.3322640958      0.0000000000
0.3346872111      1033435.2191693555      0.1560000000      15.0104540159      0.3395834485      0.0000000000
0.3417901368       937130.5722762007      0.1580000000      14.9370855676      0.3469596890      0.0000000000
0.3489416252       850828.9589323928      0.1600000000      14.8676687511      0.3543932592      0.0000000000
0.3561419682       773374.8143466803      0.1620000000      14.8019240784      0.3618846095      0.0000000000
0.3633914673       703760.0233281245      0.1640000000      14.7395969476      0.3694342024      0.0000000000
0.3706904311       641103.7407275204      0.1660000000      14.6804554127      0.3770425111      0.0000000000
0.3780391730       584634.5604430698      0.1680000000      14.6242879060      0.3847100168      0.0000000000
0.3854380084       533675.5006106778      0.1700000000      14.5709006579      0.3924372057      0.0000000000
0.3928872522       487631.3816063150      0.1720000000      14.5201161039      0.4002245665      0.0000000000
0.4003872155       445977.8907917073      0.1740000000      14.4717711442      0.4080725873      0.0000000000
0.4079382039       408252.6174560260      0.1760000000      14.4257160728      0.4159817532      0.0000000000
0.4155405132       374046.6427864608      0.1780000000      14.3818126816      0.4239525425      0.0000000000
0.4231944224       342998.0047742937      0.1800000000      14.3399336400      0.4319854187      0.0000000000
0.4309002137       314785.7216154317      0.1820000000      14.2999613592      0.4400808523      0.0000000000
0.4386581334       289124.6735042839      0.1840000000      14.2617867483      0.4482392787      0.0000000000
0.4464684149       265761.3054074789      0.1860000000      14.2253089741      0.4564611228      0.0000000000
0.4543312685       244469.7211718142      0.1880000000      14.1904344886      0.4647467886      0.0000000000
0.4622468795       225048.4054342366      0.1900000000      14.1570762308      0.4730966565      0.0000000000
0.4702154052       207317.3437985944      0.1920000000      14.1251532878      0.4815110802      0.0000000000
0.4782369737       191115.5069876392      0.1940000000      14.0945902257      0.4899903853      0.0000000000
0.4863116797       176298.6799482934      0.1960000000      14.0653167307      0.4985348652      0.0000000000
0.4944395836       162737.5171892979      0.1980000000      14.0372669885      0.5071447790      0.0000000000
0.5026207102       150315.8888509128      0.2000000000      14.0103797224      0.5158203511      0.0000000000
0.5108550435       138929.4122705857      0.2020000000      13.9845972937      0.5245617647      0.0000000000
0.5191425285       128484.1183195122      0.2040000000      13.9598657653      0.5333691637      0.0000000000
0.5274830669       118895.3580764222      0.2060000000      13.9361344771      0.5422426481      0.0000000000
0.5358765171       110086.7688066442      0.2080000000      13.9133558921      0.5511822736      0.0000000000
0.5443226910       101989.4128706441      0.2100000000      13.8914852329      0.5601880481      0.0000000000
0.5528213546        94540.9500276696      0.2120000000      13.8704802598      0.5692599320      0.0000000000
0.5613722257        87684.9948272625      0.2140000000      13.8503011907      0.5783978352      0.0000000000
0.5699749712        81370.4969969912      0.2160000000      13.8309105066      0.5876016147      0.0000000000
0.5786292100        75551.1516573109      0.2180000000      13.8122726861      0.5968710762      0.0000000000
0.5873345086        70184.9544946121      0.2200000000      13.7943540812      0.6062059704      0.0000000000
0.5960903827        65233.7564003527      0.2220000000      13.7771228840      0.6156059934      0.0000000000
0.6048962955        60662.8888149643      0.2240000000      13.7605488858      0.6250707851      0.0000000000
0.6137516578        56440.7954654824      0.2260000000      13.7446033243      0.6345999285      0.0000000000
0.6226558278        52538.7689701738      0.2280000000      13.7292590050      0.6441929496      0.0000000000
0.6316081114        48930.6344712229      0.2300000000      13.7144899780      0.6538493172      0.0000000000
0.6406077612        45592.5296594313      0.2320000000      13.7002714837      0.6635684413      0.0000000000
0.6496539781        42502.6793978432      0.2340000000      13.6865799713      0.6733496743      0.0000000000
0.6587459110        39641.1949875981      0.2360000000      13.6733929372      0.6831923111      0.0000000000
0.6678826572        36989.9000858995      0.2380000000      13.6606888576      0.6930955880      0.0000000000
0.6770632633        34532.1772324562      0.2400000000      13.6484472013      0.7030586843      0.0000000000
0.6862867265        32252.8119333821      0.2420000000      13.6366482617      0.7130807226      0.0000000000
0.6955519943        30137.8791191707      0.2440000000      13.6252731801      0.7231607685      0.0000000000
0.7048579669        28174.6157919046      0.2460000000      13.6143038886      0.7332978326      0.0000000000
0.7142034981        26351.3174696167      0.2480000000      13.6037230520      0.7434908711      0.0000000000
0.7235873950        24657.2520991358      0.2500000000      13.5935139851      0.7537387855      0.0000000000
0.7330084218        23082.5638275020      0.2520000000      13.5836606699      0.7640404254      0.0000000000
0.7424652997        21618.2039179519      0.2540000000      13.5741476927      0.7743945888      0.0000000000
0.7519567098        20255.8527605824      0.2560000000      13.5649603021      0.7848000248      0.0000000000
0.7614812928        18987.8642028634      0.2580000000      13.5560841530      0.7952554329      0.0000000000
0.7710376527        17807.2019042311      0.2600000000      13.5475054901      0.8057594661      0.0000000000
0.7806243578        16707.3923889064      0.2620000000      13.5392110865      0.8163107323      0.0000000000
0.7902399426        15682.4725587801      0.2640000000      13.5311881966      0.8269077960      0.0000000000
0.7998829103        14726.9460440318      0.2660000000      13.5234244209      0.8375491803      0.0000000000
0.8095517337        13835.7521456999      0.2680000000      13.5159079059      0.8482333678      0.0000000000
0.8192448585        13004.2203769355      0.2700000000      13.5086271363      0.8589588041      0.0000000000
0.8289607050        12228.0424703914      0.2720000000      13.5015710455      0.8697238990      0.0000000000
0.8386976700        11503.2409676635      0.2740000000      13.4947288434      0.8805270284      0.0000000000
0.8484541291        10826.1444908531      0.2760000000      13.4880902355      0.8913665371      0.0000000000
0.8582284388        10193.3613866388      0.2780000000      13.4816451852      0.9022407400      0.0000000000
0.8680189395         9601.7555158276      0.2800000000      13.4753840203      0.9131479256      0.0000000000
0.8778239562         9048.4291354884      0.2820000000      13.4692973955      0.9240863569      0.0000000000
0.8876418020         8530.7012452760      0.2840000000      13.4633762747      0.9350542744      0.0000000000
0.8974707796         8046.0911178936      0.2860000000      13.4576118582      0.9460498980      0.0000000000
0.9073091839         7592.3022271377      0.2880000000      13.4519957691      0.9570714298      0.0000000000
0.9171553038         7167.2084996232      0.2900000000      13.4465198105      0.9681170557      0.0000000000
0.9270074248         6768.8399744433      0.2920000000      13.4411761254      0.9791849479      0.0000000000
0.9368638302         6395.3709952346      0.2940000000      13.4359570011      0.9902732670      0.0000000000
0.9467228043         6045.1095863390      0.2960000000      13.4308551423      1.0013801646      0.0000000000
0.9565826334         5716.4863612966      0.2980000000      13.4258634063      1.0125037847      0.0000000000
0.9664416085         5408.0450458765      0.3000000000      13.4209748865      1.0236422667      0.0000000000
0.9762980270         5118.4344284777      0.3020000000      13.4161829510      1.0347937471      0.0000000000
0.9861501944         4846.4002391922      0.3040000000      13.4114812197      1.0459563617      0.0000000000
0.9959964262         4590.7772837604      0.3060000000      13.4068634816      1.0571282473      0.0000000000
1.0058350498         4350.4832083329      0.3080000000      13.4023237817      1.0683075441      0.0000000000
1.0156644066         4124.5121387983      0.3100000000      13.3978563300      1.0794923981      0.0000000000
1.0254828510         3911.9289992658      0.3120000000      13.3934555794      1.0906809599      0.0000000000
1.0352887564         3711.8639618332      0.3140000000      13.3891162089      1.1018713914      0.0000000000
1.0450805132         3523.5082806451      0.3160000000      13.3848330353      1.1130618642      0.0000000000
1.0548565318         3346.1088813376      0.3180000000      13.3806011264      1.1242505623      0.0000000000
1.0646152432         3178.9648717449      0.3200000000      13.3764156683      1.1354356836      0.0000000000
1.0743551006         3021.4234536486      0.3220000000      13.3722720723      1.1466154412      0.0000000000
1.0840745807         2872.8767577329      0.3240000000      13.3681659345      1.1577880656      0.0000000000
1.0937721845         2732.7583904681      0.3260000000      13.3640930222      1.1689518051      0.0000000000
1.1034464387         2600.5399461734      0.3280000000      13.3600492264      1.1801049283      0.0000000000
1.1130958964         2475.7292157628      0.3300000000      13.3560306656      1.1912457246      0.0000000000
1.1227191381         2357.8667882249      0.3320000000      13.3520335653      1.2023725054      0.0000000000
1.1323147728         2246.5241284614      0.3340000000      13.3480543352      1.2134836059      0.0000000000
1.1418814383         2141.3011414906      0.3360000000      13.3440895474      1.2245773856      0.0000000000
1.1514178021         2041.8244458503      0.3380000000      13.3401358658      1.2356522293      0.0000000000
1.1609225622         1947.7452787271      0.3400000000      13.3361901604      1.2467065484      0.0000000000
1.1703944475         1858.7376092003      0.3420000000      13.3322494104      1.2577387816      0.0000000000
1.1798322182         1774.4969136475      0.3440000000      13.3283107396      1.2687473957      0.0000000000
1.1892346663         1694.7385807693      0.3460000000      13.3243713936      1.2797308860      0.0000000000
1.1986006163         1619.1961591313      0.3480000000      13.3204287542      1.2906877778      0.0000000000
1.2079289249         1547.6207416519      0.3500000000      13.3164803402      1.3016166260      0.0000000000
1.2172184815         1479.7791062077      0.3520000000      13.3125237336      1.3125160164      0.0000000000
1.2264682088         1415.4530911729      0.3540000000      13.3085567291      1.3233845659      0.0000000000
1.2356770621         1354.4384533714      0.3560000000      13.3045771624      1.3342209228      0.0000000000
1.2448440319         1296.5438040365      0.3580000000      13.3005829826      1.3450237693      0.0000000000
1.2539681369         1241.5898085314      0.3600000000      13.2965722834      1.3557918140      0.0000000000
1.2630484338         1189.4084289789      0.3620000000      13.2925432420      1.3665238039      0.0000000000
1.2720840106         1139.8421264951      0.3640000000      13.2884941334      1.3772185162      0.0000000000
1.2810739887         1092.7431169942      0.3660000000      13.2844233228      1.3878747616      0.0000000000
1.2900175220         1047.9727599181      0.3680000000      13.2803292684      1.3984913832      0.0000000000
1.2989137976         1005.4009149634      0.3700000000      13.2762105595      1.4090672574      0.0000000000
1.3077620345          964.9054973553      0.3720000000      13.2720658372      1.4196012932      0.0000000000
1.3165614842          926.3717220910      0.3740000000      13.2678938072      1.4300924330      0.0000000000
1.3253114299          889.6919529935      0.3760000000      13.2636933033      1.4405396516      0.0000000000
1.3340111851          854.7649027572      0.3780000000      13.2594632154      1.4509419549      0.0000000000
1.3426600991          821.4954300590      0.3800000000      13.2552025039      1.4612983870      0.0000000000
1.3512575474          789.7940150134      0.3820000000      13.2509102241      1.4716080190      0.0000000000
1.3598029375          759.5765607644      0.3840000000      13.2465854884      1.4818699558      0.0000000000
1.3682957068          730.7638220608      0.3860000000      13.2422274499      1.4920833343      0.0000000000
1.3767353227          703.2813228107      0.3880000000      13.2378353885      1.5022473233      0.0000000000
1.3851212812          677.0589478572      0.3900000000      13.2334085963      1.5123611227      0.0000000000
1.3934531075          652.0305438978      0.3920000000      13.2289464531      1.5224239638      0.0000000000
1.4017303545          628.1339158398      0.3940000000      13.2244483710      1.5324351084      0.0000000000
1.4099526029          605.3104460517      0.3960000000      13.2199138398      1.5423938486      0.0000000000
1.4181194608          583.5048397164      0.3980000000      13.2153424072      1.5522995066      0.0000000000
1.4262305623          562.6649657782      0.4000000000      13.2107336562      1.5621514341      0.0000000000
1.4342855682          542.7416742957      0.4020000000      13.2060872373      1.5719490120      0.0000000000
1.4422841644          523.6885409302      0.4040000000      13.2014028096      1.5816916499      0.0000000000
1.4502260618          505.4618409152      0.4060000000      13.1966801235      1.5913787853      0.0000000000
1.4581109958          488.0202212092      0.4080000000      13.1919189568      1.6010098839      0.0000000000
1.4659387255          471.3246563066      0.4100000000      13.1871191191      1.6105844385      0.0000000000
1.4737090333          455.3382751077      0.4120000000      13.1822804592      1.6201019688      0.0000000000
1.4814217243          440.0262650202      0.4140000000      13.1774028850      1.6295620205      0.0000000000
1.4890766255          425.3556509138      0.4160000000      13.1724863131      1.6389641656      0.0000000000
1.4966735858          411.2953461398      0.4180000000      13.1675307146      1.6483080009      0.0000000000
1.5042124747          397.8158968332      0.4200000000      13.1625360865      1.6575931484      0.0000000000
1.5116931823          384.8894173449      0.4220000000      13.1575024586      1.6668192542      0.0000000000
1.5191156185          372.4895661206      0.4240000000      13.1524298774      1.6759859879      0.0000000000
1.5264797123          360.5913900214      0.4260000000      13.1473184421      1.6850930429      0.0000000000
1.5337854117          349.1712546308      0.4280000000      13.1421682570      1.6941401347      0.0000000000
1.5410326825          338.2067591125      0.4300000000      13.1369794631      1.7031270013      0.0000000000
1.5482215082          327.6767332772      0.4320000000      13.1317522281      1.7120534023      0.0000000000
1.5553518896          317.5610380993      0.4340000000      13.1264867175      1.7209191184      0.0000000000
1.5624238438          307.8406321075      0.4360000000      13.1211831679      1.7297239511      0.0000000000
1.5694374038          298.4974592612      0.4380000000      13.1158417814      1.7384677217      0.0000000000
1.5763926182          289.5143632295      0.4400000000      13.1104628178      1.7471502712      0.0000000000
1.5832895505          280.8750932285      0.4420000000      13.1050465304      1.7557714597      0.0000000000
1.5901282785          272.5642147200      0.4440000000      13.0995932183      1.7643311657      0.0000000000
1.5969088942          264.5670578552      0.4460000000      13.0941031469      1.7728292859      0.0000000000
1.6036315029          256.8697241552      0.4480000000      13.0885766615      1.7812657346      0.0000000000
1.6102962227          249.4589675315      0.4500000000      13.0830140809      1.7896404431      0.0000000000
1.6169031845          242.3222608482      0.4520000000      13.0774157319      1.7979533590      0.0000000000
1.6234525308          235.4476408124      0.4540000000      13.0717819875      1.8062044466      0.0000000000
1.6299444161          228.8237691123      0.4560000000      13.0661131921      1.8143936852      0.0000000000
1.6363790057          222.4398448137      0.4580000000      13.0604097271      1.8225210695      0.0000000000
