# M(M_sol)                 Lambda          n_Bc(fm^-3)         R(km)            m_B(M_sol)        m_Bquar/M_B
0.1544104737     46940912.7696676254      0.0850000000      23.8226117413      0.1546874149      0.0000000000
0.1615187327     38161609.6565357745      0.0870000000      22.7804625565      0.1618990355      0.0000000000
0.1687100813     31338928.2861222513      0.0890000000      21.9078571602      0.1692020111      0.0000000000
0.1759769011     25958112.1803152598      0.0910000000      21.1679955865      0.1765887581      0.0000000000
0.1833129662     21662777.8965670280      0.0930000000      20.5338561707      0.1840530914      0.0000000000
0.1907132203     18198591.2515989728      0.0950000000      19.9851704810      0.1915900017      0.0000000000
0.1981736080     15379704.0611752924      0.0970000000      19.5064500923      0.1991954888      0.0000000000
0.2056909463     13067751.1270912830      0.0990000000      19.0856663631      0.2068664336      0.0000000000
0.2132628211     11158103.2679088917      0.1010000000      18.7133439433      0.2146004962      0.0000000000
0.2208875012      9570598.3632997852      0.1030000000      18.3819228867      0.2223960307      0.0000000000
0.2285638683      8243125.3113020817      0.1050000000      18.0853031381      0.2302520170      0.0000000000
0.2362913539      7127076.6199910082      0.1070000000      17.8185122570      0.2381679980      0.0000000000
0.2440698873      6184074.9253074350      0.1090000000      17.5774594043      0.2461440289      0.0000000000
0.2518998456      5383577.8346382501      0.1110000000      17.3587514205      0.2541806283      0.0000000000
0.2597538450      4703343.8569565816      0.1130000000      17.1602288988      0.2622497842      0.0000000000
0.2674824486      4132840.7682172493      0.1150000000      16.9825996117      0.2701977997      0.0000000000
0.2751606544      3646635.6733818888      0.1170000000      16.8213306171      0.2781015307      0.0000000000
0.2828176490      3228629.5109234923      0.1190000000      16.6737686376      0.2859909082      0.0000000000
0.2904681294      2867051.3392860447      0.1210000000      16.5380212930      0.2938810290      0.0000000000
0.2981223803      2552707.3832680001      0.1230000000      16.4125915404      0.3017824920      0.0000000000
0.3057887156      2278233.1321556717      0.1250000000      16.2962518018      0.3097039003      0.0000000000
0.3134743928      2037639.1452053690      0.1270000000      16.1879748320      0.3176527980      0.0000000000
0.3211860567      1826004.1036737545      0.1290000000      16.0868914828      0.3256361243      0.0000000000
0.3289299561      1639248.0726772228      0.1310000000      15.9922586973      0.3336604352      0.0000000000
0.3367120738      1473964.7989109450      0.1330000000      15.9034367562      0.3417320371      0.0000000000
0.3445382005      1327293.7740008230      0.1350000000      15.8198721762      0.3498570622      0.0000000000
0.3524139830      1196818.0820133060      0.1370000000      15.7410831223      0.3580415175      0.0000000000
0.3603449493      1080485.7844428380      0.1390000000      15.6666485250      0.3662913118      0.0000000000
0.3683365252       976546.6334545390      0.1410000000      15.5961990215      0.3746122713      0.0000000000
0.3763940464       883501.1687625969      0.1430000000      15.5294095040      0.3830101531      0.0000000000
0.3845227596       800059.3022817848      0.1450000000      15.4659924996      0.3914906460      0.0000000000
0.3927278273       725107.3349313835      0.1470000000      15.4056939786      0.4000593756      0.0000000000
0.4010143215       657679.7775942149      0.1490000000      15.3482878744      0.4087218981      0.0000000000
0.4093872261       596937.3217730297      0.1510000000      15.2935734007      0.4174837024      0.0000000000
0.4178514259       542147.4600495171      0.1530000000      15.2413708539      0.4263501990      0.0000000000
0.4264117077       492669.1683954734      0.1550000000      15.1915199708      0.4353267216      0.0000000000
0.4350727481       447939.9716436449      0.1570000000      15.1438770358      0.4444185140      0.0000000000
0.4438391101       407464.6288945060      0.1590000000      15.0983129340      0.4536307262      0.0000000000
0.4527152404       370806.0825688559      0.1610000000      15.0547114613      0.4629684131      0.0000000000
0.4617054347       337577.6640650629      0.1630000000      15.0129678659      0.4724364963      0.0000000000
0.4708138677       307436.4503023815      0.1650000000      14.9729873927      0.4820397969      0.0000000000
0.4800445647       280077.4971375164      0.1670000000      14.9346843393      0.4917830051      0.0000000000
0.4894013891       255229.2239854104      0.1690000000      14.8979806330      0.5016706665      0.0000000000
0.4988880417       232649.1539724309      0.1710000000      14.8628054207      0.5117071820      0.0000000000
0.5085080492       212120.3556551568      0.1730000000      14.8290938961      0.5218967947      0.0000000000
0.5182647526       193448.5060391238      0.1750000000      14.7967867355      0.5322435777      0.0000000000
0.5281613026       176459.0900713792      0.1770000000      14.7658292183      0.5427514286      0.0000000000
0.5382006478       160995.2745106324      0.1790000000      14.7361712183      0.5534240565      0.0000000000
0.5483855287       146915.7954137181      0.1810000000      14.7077661073      0.5642649753      0.0000000000
0.5587184662       134093.2862528669      0.1830000000      14.6805705523      0.5752774905      0.0000000000
0.5692017576       122412.7491823790      0.1850000000      14.6545442043      0.5864646942      0.0000000000
0.5798374640       111770.2401589913      0.1870000000      14.6296491329      0.5978294509      0.0000000000
0.5906274293       102071.6883506379      0.1890000000      14.6058495561      0.6093744166      0.0000000000
0.6015731920        93231.9030597484      0.1910000000      14.5831117062      0.6211019436      0.0000000000
0.6126760926        85173.6415313887      0.1930000000      14.5614034395      0.6330141941      0.0000000000
0.6239371959        77826.8079172871      0.1950000000      14.5406939930      0.6451130556      0.0000000000
0.6353573015        71127.7674137216      0.1970000000      14.5209537347      0.6574001506      0.0000000000
0.6469369449        65018.6920461182      0.1990000000      14.5021542811      0.6698768364      0.0000000000
0.6586763870        59447.0262035126      0.2010000000      14.4842678881      0.6825441920      0.0000000000
0.6705756181        54364.9583297220      0.2030000000      14.4672677833      0.6954030206      0.0000000000
0.6826343505        49728.9924197376      0.2050000000      14.4511276172      0.7084538394      0.0000000000
0.6948520211        45499.5350447492      0.2070000000      14.4358216806      0.7216968811      0.0000000000
0.7072277905        41640.5331281717      0.2090000000      14.4213247082      0.7351320898      0.0000000000
0.7197605409        38119.1600566988      0.2110000000      14.4076117223      0.7487591174      0.0000000000
0.7324488814        34905.5069974932      0.2130000000      14.3946580879      0.7625773264      0.0000000000
0.7452911471        31972.3312228424      0.2150000000      14.3824394557      0.7765857867      0.0000000000
0.7582854036        29294.8094103917      0.2170000000      14.3709316255      0.7907832779      0.0000000000
0.7714294511        26850.3210432557      0.2190000000      14.3601106362      0.8051682915      0.0000000000
0.7847208146        24618.2562088806      0.2210000000      14.3499526951      0.8197390171      0.0000000000
0.7981568045        22579.8259915130      0.2230000000      14.3404340967      0.8344934064      0.0000000000
0.8117344418        20717.9142500852      0.2250000000      14.3315313759      0.8494290883      0.0000000000
0.8254505166        19016.9249773721      0.2270000000      14.3232211051      0.8645434302      0.0000000000
0.8393015872        17462.6410103558      0.2290000000      14.3154800866      0.8798335348      0.0000000000
0.8532839835        16042.1095778623      0.2310000000      14.3082851903      0.8952962403      0.0000000000
0.8673938198        14743.5285251139      0.2330000000      14.3016135512      0.9109281322      0.0000000000
0.8816270019        13556.1444330273      0.2350000000      14.2954424652      0.9267255485      0.0000000000
0.8959792386        12470.1576577082      0.2370000000      14.2897493039      0.9426845890      0.0000000000
0.9104460520        11476.6435338766      0.2390000000      14.2845118081      0.9588011246      0.0000000000
0.9250227893        10567.4685020649      0.2410000000      14.2797079181      0.9750708081      0.0000000000
0.9397046324         9735.2236738909      0.2430000000      14.2753157380      0.9914890810      0.0000000000
0.9544866117         8973.1614252374      0.2450000000      14.2713137760      1.0080511877      0.0000000000
0.9693636170         8275.1330441729      0.2470000000      14.2676807053      1.0247521845      0.0000000000
0.9843304105         7635.5383520612      0.2490000000      14.2643956377      1.0415869518      0.0000000000
0.9993816388         7049.2764479892      0.2510000000      14.2614379747      1.0585502059      0.0000000000
1.0145118455         6511.7002961985      0.2530000000      14.2587875044      1.0756365103      0.0000000000
1.0297154842         6018.5768508411      0.2550000000      14.2564243817      1.0928402884      0.0000000000
1.0449869307         5566.0497498698      0.2570000000      14.2543291672      1.1101558361      0.0000000000
1.0603204959         5150.6058802806      0.2590000000      14.2524828627      1.1275773335      0.0000000000
1.0757104381         4769.0441898343      0.2610000000      14.2508668272      1.1450988580      0.0000000000
1.0911509759         4418.4484351723      0.2630000000      14.2494630321      1.1627143973      0.0000000000
1.1066362985         4096.1609036249      0.2650000000      14.2482537706      1.1804178595      0.0000000000
1.1221605803         3799.7598421925      0.2670000000      14.2472218836      1.1982030887      0.0000000000
1.1377179905         3527.0374857889      0.2690000000      14.2463506775      1.2160638751      0.0000000000
1.1533027054         3275.9817018074      0.2710000000      14.2456239962      1.2339939679      0.0000000000
1.1689089192         3044.7573660259      0.2730000000      14.2450261147      1.2519870870      0.0000000000
1.1845308544         2831.6916386589      0.2750000000      14.2445419228      1.2700369346      0.0000000000
1.2001627721         2635.2583504037      0.2770000000      14.2441567825      1.2881372064      0.0000000000
1.2157989821         2454.0654729441      0.2790000000      14.2438565656      1.3062816031      0.0000000000
1.2314338516         2286.8426355708      0.2810000000      14.2436276642      1.3244638402      0.0000000000
1.2470618150         2132.4305469198      0.2830000000      14.2434570458      1.3426776597      0.0000000000
1.2626773812         1989.7709802306      0.2850000000      14.2433321453      1.3609168382      0.0000000000
1.2782751427         1857.8971412511      0.2870000000      14.2432409462      1.3791751984      0.0000000000
1.2938497821         1735.9265692528      0.2890000000      14.2431719566      1.3974466169      0.0000000000
1.3093960795         1623.0524822427      0.2910000000      14.2431142007      1.4157250335      0.0000000000
1.3249089185         1518.5378566299      0.2930000000      14.2430571937      1.4340044585      0.0000000000
1.3403832922         1421.7087530070      0.2950000000      14.2429909453      1.4522789812      0.0000000000
1.3558143096         1331.9487035065      0.2970000000      14.2429059809      1.4705427780      0.0000000000
1.3711971988         1248.6939022531      0.2990000000      14.2427933100      1.4887901172      0.0000000000
1.3865273127         1171.4282813441      0.3010000000      14.2426444310      1.5070153673      0.0000000000
1.4018001321         1099.6793988222      0.3030000000      14.2424512753      1.5252130013      0.0000000000
1.4170112699         1033.0144809917      0.3050000000      14.2422062795      1.5433776037      0.0000000000
1.4321564732          971.0371439163      0.3070000000      14.2419022794      1.5615038736      0.0000000000
1.4472316268          913.3840056734      0.3090000000      14.2415325740      1.5795866308      0.0000000000
1.4622327545          859.7218457457      0.3110000000      14.2410908957      1.5976208194      0.0000000000
1.4771560209          809.7450677142      0.3130000000      14.2405713529      1.6156015104      0.0000000000
1.4919977332          763.1731217769      0.3150000000      14.2399684679      1.6335239065      0.0000000000
1.5067543414          719.7485199924      0.3170000000      14.2392772065      1.6513833438      0.0000000000
1.5214224391          679.2347184579      0.3190000000      14.2384928055      1.6691752939      0.0000000000
1.5359987637          641.4144276641      0.3210000000      14.2376109733      1.6868953670      0.0000000000
1.5504801964          606.0877892834      0.3230000000      14.2366276747      1.7045393129      0.0000000000
1.5648637606          573.0710570417      0.3250000000      14.2355392517      1.7221030206      0.0000000000
1.5791466231          542.1951428691      0.3270000000      14.2343424046      1.7395825227      0.0000000000
1.5933260911          513.3043946996      0.3290000000      14.2330341018      1.7569739929      0.0000000000
1.6073996121          486.2554619883      0.3310000000      14.2316116056      1.7742737470      0.0000000000
1.6213647717          460.9162558894      0.3330000000      14.2300724945      1.7914782439      0.0000000000
1.6352192923          437.1649594338      0.3350000000      14.2284146071      1.8085840838      0.0000000000
1.6489610304          414.8893245410      0.3370000000      14.2266360299      1.8255880081      0.0000000000
1.6625879755          393.9856885750      0.3390000000      14.2247351336      1.8424868992      0.0000000000
1.6760982468          374.3583892387      0.3410000000      14.2227105028      1.8592777784      0.0000000000
1.6894900913          355.9190319495      0.3430000000      14.2205609446      1.8759578051      0.0000000000
1.7027618806          338.5859877102      0.3450000000      14.2182855071      1.8925242752      0.0000000000
1.7159121090          322.2837429203      0.3470000000      14.2158834291      1.9089746196      0.0000000000
1.7289393899          306.9424768536      0.3490000000      14.2133541387      1.9253064017      0.0000000000
1.7418424533          292.4975560571      0.3510000000      14.2106972414      1.9415173162      0.0000000000
1.7546201428          278.8891353993      0.3530000000      14.2079125525      1.9576051866      0.0000000000
1.7672714123          266.0617911950      0.3550000000      14.2050000234      1.9735679627      0.0000000000
1.7797953229          253.9641324659      0.3570000000      14.2019597576      1.9894037183      0.0000000000
1.7921910400          242.5485363362      0.3590000000      14.1987920256      2.0051106490      0.0000000000
1.8044578298          231.7707896990      0.3610000000      14.1954972091      2.0206870693      0.0000000000
1.8165950564          221.5898868728      0.3630000000      14.1920758391      2.0361314098      0.0000000000
1.8286021784          211.9677098898      0.3650000000      14.1885285608      2.0514422153      0.0000000000
1.8404787458          202.8688782095      0.3670000000      14.1848561319      2.0666181410      0.0000000000
1.8522243964          194.2604853410      0.3690000000      14.1810594081      2.0816579498      0.0000000000
1.8638388535          186.1119229395      0.3710000000      14.1771393707      2.0965605108      0.0000000000
1.8753219215          178.3947289258      0.3730000000      14.1730970432      2.1113247939      0.0000000000
1.8866734841          171.0823900236      0.3750000000      14.1689335774      2.1259498695      0.0000000000
1.8978934998          164.1502185326      0.3770000000      14.1646501854      2.1404349040      0.0000000000
1.9089820002          157.5752067552      0.3790000000      14.1602481450      2.1547791573      0.0000000000
1.9199390861          151.3359093107      0.3810000000      14.1557288178      2.1689819803      0.0000000000
1.9307649244          145.4123203630      0.3830000000      14.1510936151      2.1830428105      0.0000000000
1.9414597461          139.7857659856      0.3850000000      14.1463439950      2.1969611714      0.0000000000
1.9520238424          134.4388227201      0.3870000000      14.1414814837      2.2107366679      0.0000000000
1.9624575627          129.3552098306      0.3890000000      14.1365076352      2.2243689838      0.0000000000
1.9727613113          124.5197064629      0.3910000000      14.1314240531      2.2378578796      0.0000000000
1.9829355450          119.9180904592      0.3930000000      14.1262323757      2.2512031890      0.0000000000
1.9929807703          115.5370542862      0.3950000000      14.1209342816      2.2644048165      0.0000000000
2.0028975412          111.3641455091      0.3970000000      14.1155314682      2.2774627348      0.0000000000
2.0126864562          107.3877032664      0.3990000000      14.1100256630      2.2903769817      0.0000000000
2.0223481564          103.5968064024      0.4010000000      14.1044186036      2.3031476580      0.0000000000
2.0318833225           99.9812207561      0.4030000000      14.0987120561      2.3157749245      0.0000000000
2.0412926733           96.5313500070      0.4050000000      14.0929078021      2.3282589998      0.0000000000
2.0505769630           93.2381941427      0.4070000000      14.0870076356      2.3406001580      0.0000000000
2.0597369791           90.0933031081      0.4090000000      14.0810133533      2.3527987256      0.0000000000
2.0687735403           87.0887518587      0.4110000000      14.0749267523      2.3648550798      0.0000000000
2.0776874949           84.2170887367      0.4130000000      14.0687496577      2.3767696459      0.0000000000
2.0864797183           81.4713172306      0.4150000000      14.0624838783      2.3885428953      0.0000000000
2.0951511116           78.8448551946      0.4170000000      14.0561312346      2.4001753430      0.0000000000
2.1037025992           76.3315168754      0.4190000000      14.0496935174      2.4116675458      0.0000000000
2.1121351277           73.9254822364      0.4210000000      14.0431725463      2.4230200997      0.0000000000
2.1204496643           71.6212680388      0.4230000000      14.0365701330      2.4342336391      0.0000000000
2.1286471942           69.4137156026      0.4250000000      14.0298880501      2.4453088328      0.0000000000
2.1367287210           67.2979610307      0.4270000000      14.0231280883      2.4562463853      0.0000000000
2.1446952615           65.2694245601      0.4290000000      14.0162920240      2.4670470298      0.0000000000
2.1525478490           63.3237861482      0.4310000000      14.0093816253      2.4777115322      0.0000000000
2.1602875291           61.4569686307      0.4330000000      14.0023986459      2.4882406866      0.0000000000
2.1679153585           59.6651295450      0.4350000000      13.9953448105      2.4986353127      0.0000000000
2.1754324047           57.9446343035      0.4370000000      13.9882218458      2.5088962563      0.0000000000
2.1828397440           56.2920579489      0.4390000000      13.9810314681      2.5190243864      0.0000000000
2.1901384608           54.7041603663      0.4410000000      13.9737753524      2.5290205937      0.0000000000
2.1973296464           53.1778810034      0.4430000000      13.9664551846      2.5388857902      0.0000000000
