# M(M_sol)                 Lambda          n_Bc(fm^-3)         R(km)            m_B(M_sol)        m_Bquar/M_B
0.1518938499     42304796.2276171967      0.0980000000      23.1881316775      0.1521090095      0.0000000000
0.1573751213     35470939.6099350527      0.1000000000      22.3196910561      0.1576642922      0.0000000000
0.1629676866     29903143.0874361545      0.1020000000      21.5611493558      0.1633367297      0.0000000000
0.1686666896     25331643.6422057860      0.1040000000      20.8941687778      0.1691216290      0.0000000000
0.1744677520     21553343.7282620482      0.1060000000      20.3041757672      0.1750147726      0.0000000000
0.1803669211     18412600.8319699802      0.1080000000      19.7794553069      0.1810123668      0.0000000000
0.1863606324     15788389.5522461999      0.1100000000      19.3104900284      0.1871110045      0.0000000000
0.1924456724     13585520.1872915849      0.1120000000      18.8894753790      0.1933076291      0.0000000000
0.1985586714     11744998.2037058175      0.1140000000      18.5134617651      0.1995378416      0.0000000000
0.2046458549     10209938.5715035442      0.1160000000      18.1785867688      0.2057468256      0.0000000000
0.2107535592      8911366.3852394447      0.1180000000      17.8764070353      0.2119818260      0.0000000000
0.2168932292      7805077.4363530576      0.1200000000      17.6019913010      0.2182545817      0.0000000000
0.2230704703      6857478.4967381060      0.1220000000      17.3515813131      0.2245708976      0.0000000000
0.2292887799      6042066.8813851820      0.1240000000      17.1221463019      0.2309344408      0.0000000000
0.2355506782      5337548.4563352438      0.1260000000      16.9111798406      0.2373478904      0.0000000000
0.2418581681      4726608.4734496130      0.1280000000      16.7165768571      0.2438134050      0.0000000000
0.2482129662      4195039.8802624065      0.1300000000      16.5365498957      0.2503328580      0.0000000000
0.2546166250      3731098.7190584927      0.1320000000      16.3695677601      0.2569079614      0.0000000000
0.2610705993      3325018.5378077738      0.1340000000      16.2143101678      0.2635403340      0.0000000000
0.2675762943      2968630.0826986912      0.1360000000      16.0696309110      0.2702315502      0.0000000000
0.2741350883      2655066.9384980607      0.1380000000      15.9345300113      0.2769831633      0.0000000000
0.2807483491      2378532.7337881955      0.1400000000      15.8081308682      0.2837967225      0.0000000000
0.2874174432      2134111.9846530962      0.1420000000      15.6896611019      0.2906737823      0.0000000000
0.2941437424      1917623.4302644229      0.1440000000      15.5784383661      0.2976159094      0.0000000000
0.3009286283      1725493.9118987827      0.1460000000      15.4738567963      0.3046246877      0.0000000000
0.3077734869      1554663.3104449857      0.1480000000      15.3753772122      0.3117017125      0.0000000000
0.3146797157      1402499.9145596817      0.1500000000      15.2825176699      0.3188485983      0.0000000000
0.3216487170      1266735.1226051177      0.1520000000      15.1948466274      0.3260669721      0.0000000000
0.3286818977      1145407.2217124521      0.1540000000      15.1119762150      0.3333584728      0.0000000000
0.3357806728      1036815.5877867430      0.1560000000      15.0335569676      0.3407247557      0.0000000000
0.3429464328       939482.5011720184      0.1580000000      14.9592735324      0.3481674583      0.0000000000
0.3501805845       852120.0213908980      0.1600000000      14.8888401755      0.3556882430      0.0000000000
0.3574845179       773603.6061972873      0.1620000000      14.8219977536      0.3632887629      0.0000000000
0.3648596083       702949.0656102771      0.1640000000      14.7585105564      0.3709706638      0.0000000000
0.3723072129       639293.1613146291      0.1660000000      14.6981637789      0.3787355810      0.0000000000
0.3798286668       581877.2237077311      0.1680000000      14.6407613548      0.3865851354      0.0000000000
0.3874252780       530033.1987794972      0.1700000000      14.5861238522      0.3945209274      0.0000000000
0.3950983226       483171.7144233233      0.1720000000      14.5340867774      0.4025445334      0.0000000000
0.4028490410       440771.8749675299      0.1740000000      14.4844990844      0.4106575003      0.0000000000
0.4106786343       402372.4795678142      0.1760000000      14.4372218879      0.4188613428      0.0000000000
0.4185882565       367564.5898730259      0.1780000000      14.3921270069      0.4271575347      0.0000000000
0.4265790087       335984.9215499272      0.1800000000      14.3490962443      0.4355475028      0.0000000000
0.4346519545       307310.2581005800      0.1820000000      14.3080201438      0.4440326432      0.0000000000
0.4428080838       281252.6610077127      0.1840000000      14.2687973450      0.4526142826      0.0000000000
0.4510483292       257555.3066772383      0.1860000000      14.2313338747      0.4612936960      0.0000000000
0.4593735588       235988.6270881568      0.1880000000      14.1955422709      0.4700720987      0.0000000000
0.4677845691       216347.3237343121      0.1900000000      14.1613410323      0.4789506383      0.0000000000
0.4762820847       198447.4708451844      0.1920000000      14.1286542272      0.4879303947      0.0000000000
0.4848667526       182124.0941688749      0.1940000000      14.0974108332      0.4970123733      0.0000000000
0.4935391383       167229.1334890423      0.1960000000      14.0675444387      0.5061975010      0.0000000000
0.5022997256       153629.3970938078      0.1980000000      14.0389926112      0.5154866250      0.0000000000
0.5111489105       141205.1123091225      0.2000000000      14.0116969685      0.5248805066      0.0000000000
0.5200869988       129848.3281949040      0.2020000000      13.9856022501      0.5343798180      0.0000000000
0.5291142052       119461.7521446580      0.2040000000      13.9606567113      0.5439851410      0.0000000000
0.5382306494       109957.5258286828      0.2060000000      13.9368112768      0.5536969619      0.0000000000
0.5474363547       101256.2956596317      0.2080000000      13.9140195899      0.5635156703      0.0000000000
0.5567312452        93286.3069336874      0.2100000000      13.8922377318      0.5734415545      0.0000000000
0.5661151462        85982.6155534985      0.2120000000      13.8714240953      0.5834748029      0.0000000000
0.5755877804        79286.3973851641      0.2140000000      13.8515390151      0.5936154974      0.0000000000
0.5851487678        73144.3489240905      0.2160000000      13.8325448701      0.6038636146      0.0000000000
0.5947976256        67508.1022274374      0.2180000000      13.8144056694      0.6142190234      0.0000000000
0.6045337668        62333.7515288525      0.2200000000      13.7970870705      0.6246814838      0.0000000000
0.6143564999        57581.4255923001      0.2220000000      13.7805562557      0.6352506455      0.0000000000
0.6242650293        53214.8750939050      0.2240000000      13.7647818422      0.6459260478      0.0000000000
0.6342584560        49201.1227367586      0.2260000000      13.7497336415      0.6567071193      0.0000000000
0.6443357770        45510.1686962866      0.2280000000      13.7353827230      0.6675931766      0.0000000000
0.6544958858        42114.6905529100      0.2300000000      13.7217011908      0.6785834241      0.0000000000
0.6647375766        38989.7885114857      0.2320000000      13.7086622874      0.6896769579      0.0000000000
0.6750595421        36112.7692714860      0.2340000000      13.6962401802      0.7008727618      0.0000000000
0.6854603764        33462.9363427098      0.2360000000      13.6844099390      0.7121697109      0.0000000000
0.6959385775        31021.3975159437      0.2380000000      13.6731474542      0.7235665720      0.0000000000
0.7064925486        28770.9133127182      0.2400000000      13.6624295077      0.7350620055      0.0000000000
0.7171206010        26695.7306280052      0.2420000000      13.6522335661      0.7466545668      0.0000000000
0.7278209562        24781.4597796933      0.2440000000      13.6425378232      0.7583427078      0.0000000000
0.7385917496        23014.9429762732      0.2460000000      13.6333212298      0.7701247807      0.0000000000
0.7494310316        21384.1514404105      0.2480000000      13.6245632656      0.7819990375      0.0000000000
0.7603367727        19878.0763853259      0.2500000000      13.6162440993      0.7939636356      0.0000000000
0.7713068665        18486.6434014844      0.2520000000      13.6083444962      0.8060166392      0.0000000000
0.7823391318        17200.6305387766      0.2540000000      13.6008457492      0.8181560220      0.0000000000
0.7934313184        16011.5888436678      0.2560000000      13.5937297155      0.8303796716      0.0000000000
0.8045811087        14911.7784265939      0.2580000000      13.5869787527      0.8426853913      0.0000000000
0.8157861240        13894.1043615894      0.2600000000      13.5805758258      0.8550709059      0.0000000000
0.8270439258        12952.0628915324      0.2620000000      13.5745041972      0.8675338624      0.0000000000
0.8383520224        12079.6894022740      0.2640000000      13.5687478416      0.8800718363      0.0000000000
0.8497078708        11271.5101905816      0.2660000000      13.5632909366      0.8926823338      0.0000000000
0.8611088837        10522.5017686764      0.2680000000      13.5581183862      0.9053627980      0.0000000000
0.8725524305         9828.0536753776      0.2700000000      13.5532153185      0.9181106098      0.0000000000
0.8840358442         9183.9309277339      0.2720000000      13.5485673708      0.9309230951      0.0000000000
0.8955564245         8586.2438013854      0.2740000000      13.5441606163      0.9437975268      0.0000000000
0.9071114423         8031.4174329314      0.2760000000      13.5399815209      0.9567311308      0.0000000000
0.9186981441         7516.1664487960      0.2780000000      13.5360169410      0.9697210888      0.0000000000
0.9303137562         7037.4695531536      0.2800000000      13.5322541447      0.9827645437      0.0000000000
0.9419554890         6592.5475468841      0.2820000000      13.5286808040      0.9958586033      0.0000000000
0.9536205407         6178.8449775995      0.2840000000      13.5252849127      1.0090003443      0.0000000000
0.9653061024         5794.0087273348      0.2860000000      13.5220549057      1.0221868176      0.0000000000
0.9770093610         5435.8728774890      0.2880000000      13.5189795560      1.0354150517      0.0000000000
0.9887275041         5102.4430285625      0.2900000000      13.5160480029      1.0486820570      0.0000000000
1.0004577233         4791.8818771533      0.2920000000      13.5132497567      1.0619848301      0.0000000000
1.0121972178         4502.4963248456      0.2940000000      13.5105746319      1.0753203576      0.0000000000
1.0239431988         4232.7259436556      0.2960000000      13.5080128341      1.0886856205      0.0000000000
1.0356928921         3981.1322228061      0.2980000000      13.5055548935      1.1020775973      0.0000000000
1.0474435420         3746.3882417788      0.3000000000      13.5031916746      1.1154932687      0.0000000000
1.0591924149         3527.2696373529      0.3020000000      13.5009143785      1.1289296209      0.0000000000
1.0709368017         3322.6465846608      0.3040000000      13.4987144851      1.1423836489      0.0000000000
1.0826740213         3131.4759628976      0.3060000000      13.4965838526      1.1558523607      0.0000000000
1.0944014231         2952.7946214423      0.3080000000      13.4945145969      1.1693327795      0.0000000000
1.1061163908         2785.7127162495      0.3100000000      13.4924991745      1.1828219491      0.0000000000
1.1178163419         2629.4078795240      0.3120000000      13.4905302949      1.1963169325      0.0000000000
1.1294987344         2483.1200380781      0.3140000000      13.4886009968      1.2098148207      0.0000000000
1.1411610661         2346.1464457628      0.3160000000      13.4867046071      1.2233127317      0.0000000000
1.1528008779         2217.8366225586      0.3180000000      13.4848346930      1.2368078142      0.0000000000
1.1644157553         2097.5891108314      0.3200000000      13.4829851558      1.2502972504      0.0000000000
1.1760033300         1984.8470956645      0.3220000000      13.4811500999      1.2637782576      0.0000000000
1.1875612824         1879.0948496342      0.3240000000      13.4793239299      1.2772480915      0.0000000000
1.1990873424         1779.8547708362      0.3260000000      13.4775012790      1.2907040477      0.0000000000
1.2105792911         1686.6841866439      0.3280000000      13.4756770614      1.3041434639      0.0000000000
1.2220349620         1599.1729816358      0.3300000000      13.4738464045      1.3175637217      0.0000000000
1.2334522513         1516.9407060848      0.3320000000      13.4720046899      1.3309622591      0.0000000000
1.2448290743         1439.6345542188      0.3340000000      13.4701474976      1.3443365201      0.0000000000
1.2561634522         1366.9270971336      0.3360000000      13.4682706745      1.3576840565      0.0000000000
1.2674534302         1298.5143636229      0.3380000000      13.4663702701      1.3710024326      0.0000000000
1.2786971174         1234.1143028885      0.3400000000      13.4644424920      1.3842892723      0.0000000000
1.2898926803         1173.4646684255      0.3420000000      13.4624838399      1.3975422525      0.0000000000
1.3010383428         1116.3218841468      0.3440000000      13.4604909584      1.4107591030      0.0000000000
1.3121323864         1062.4595006478      0.3460000000      13.4584607073      1.4239376076      0.0000000000
1.3231731505         1011.6669847935      0.3480000000      13.4563900776      1.4370756047      0.0000000000
1.3341590322          963.7483999955      0.3500000000      13.4542762976      1.4501709881      0.0000000000
1.3450884867          918.5214940078      0.3520000000      13.4521167639      1.4632217078      0.0000000000
1.3559600268          875.8165487813      0.3540000000      13.4499090359      1.4762257696      0.0000000000
1.3667722226          835.4755276472      0.3560000000      13.4476508182      1.4891812359      0.0000000000
1.3775237016          797.3511291152      0.3580000000      13.4453399856      1.5020862259      0.0000000000
1.3882131462          761.3061428587      0.3600000000      13.4429745537      1.5149389136      0.0000000000
1.3988393001          727.2126361661      0.3620000000      13.4405527028      1.5277375356      0.0000000000
1.4094009579          694.9512806271      0.3640000000      13.4380727473      1.5404803796      0.0000000000
1.4198969711          664.4107384874      0.3660000000      13.4355331214      1.5531657916      0.0000000000
1.4303262456          635.4870057299      0.3680000000      13.4329324046      1.5657921743      0.0000000000
1.4406877412          608.0831051578      0.3700000000      13.4302692911      1.5783579862      0.0000000000
1.4509804708          582.1083791280      0.3720000000      13.4275425972      1.5908617418      0.0000000000
1.4612034997          557.4781181876      0.3740000000      13.4247512803      1.6033020107      0.0000000000
1.4713559444          534.1131408834      0.3760000000      13.4218943364      1.6156774174      0.0000000000
1.4814369723          511.9393884877      0.3780000000      13.4189709605      1.6279866410      0.0000000000
1.4914458004          490.8876178701      0.3800000000      13.4159803809      1.6402284140      0.0000000000
1.5013816944          470.8929942999      0.3820000000      13.4129219594      1.6524015220      0.0000000000
1.5112439678          451.8948009280      0.3840000000      13.4097951033      1.6645048034      0.0000000000
1.5210319808          433.8362398075      0.3860000000      13.4065993676      1.6765371479      0.0000000000
1.5307451397          416.6640251639      0.3880000000      13.4033343508      1.6884974967      0.0000000000
1.5403828952          400.3282605358      0.3900000000      13.3999997473      1.7003848406      0.0000000000
1.5499447419          384.7821685014      0.3920000000      13.3965953278      1.7121982202      0.0000000000
1.5594302171          369.9818091835      0.3940000000      13.3931209153      1.7239367247      0.0000000000
1.5688388997          355.8860331894      0.3960000000      13.3895764441      1.7355994907      0.0000000000
1.5781704091          342.4561875535      0.3980000000      13.3859618703      1.7471857018      0.0000000000
1.5874244042          329.6559686588      0.4000000000      13.3822772380      1.7586945875      0.0000000000
1.5966005823          317.4512822598      0.4020000000      13.3785226370      1.7701254223      0.0000000000
1.6056986781          305.8100749949      0.4040000000      13.3746982241      1.7814775250      0.0000000000
1.6147184625          294.7022475555      0.4060000000      13.3708042041      1.7927502570      0.0000000000
1.6236597415          284.0994826757      0.4080000000      13.3668408363      1.8039430223      0.0000000000
1.6325223556          273.9751121363      0.4100000000      13.3628084053      1.8150552662      0.0000000000
1.6413061779          264.3040970033      0.4120000000      13.3587072705      1.8260864737      0.0000000000
1.6500111140          255.0628116993      0.4140000000      13.3545378303      1.8370361701      0.0000000000
1.6586371001          246.2290516298      0.4160000000      13.3503004918      1.8479039179      0.0000000000
1.6671841026          237.7818683050      0.4180000000      13.3459957347      1.8586893178      0.0000000000
1.6756521168          229.7015336871      0.4200000000      13.3416240497      1.8693920065      0.0000000000
1.6840411662          221.9694434430      0.4220000000      13.3371859752      1.8800116564      0.0000000000
1.6923513008          214.5680648512      0.4240000000      13.3326820748      1.8905479742      0.0000000000
1.7005825971          207.4808372708      0.4260000000      13.3281129271      1.9010007002      0.0000000000
1.7087351563          200.6921511673      0.4280000000      13.3234791645      1.9113696073      0.0000000000
1.7168091040          194.1872644901      0.4300000000      13.3187814189      1.9216545000      0.0000000000
1.7248045887          187.9522545517      0.4320000000      13.3140203592      1.9318552137      0.0000000000
1.7327217816          181.9739660974      0.4340000000      13.3091966749      1.9419716135      0.0000000000
1.7405608748          176.2399701723      0.4360000000      13.3043110545      1.9520035934      0.0000000000
1.7483220813          170.7385144981      0.4380000000      13.2993642432      1.9619510755      0.0000000000
1.7560056337          165.4584983631      0.4400000000      13.2943569539      1.9718140089      0.0000000000
1.7636117834          160.3893991746      0.4420000000      13.2892899587      1.9815923691      0.0000000000
1.7711407999          155.5212734285      0.4440000000      13.2841640216      1.9912861570      0.0000000000
1.7785929699          150.8447129173      0.4460000000      13.2789799136      2.0008953979      0.0000000000
1.7859685966          146.3507959214      0.4480000000      13.2737384360      2.0104201410      0.0000000000
1.7932679989          142.0310753418      0.4500000000      13.2684403775      2.0198604585      0.0000000000
1.8004915106          137.8775584961      0.4520000000      13.2630865459      2.0292164444      0.0000000000
1.8076394800          133.8826553232      0.4540000000      13.2576777630      2.0384882142      0.0000000000
1.8147122687          130.0391747759      0.4560000000      13.2522148537      2.0476759041      0.0000000000
