# M(M_sol)                 Lambda          n_Bc(fm^-3)         R(km)            m_B(M_sol)        m_Bquar/M_B
0.1507091929     45789842.3725490570      0.0980000000      23.5954822766      0.1509060213      0.0000000000
0.1549908977     39777439.8666972518      0.1000000000      22.8609802708      0.1552446862      0.0000000000
0.1593087878     34703152.0948401019      0.1020000000      22.2054121629      0.1596226796      0.0000000000
0.1636653890     30388541.0673271716      0.1040000000      21.6164722862      0.1640426206      0.0000000000
0.1680637036     26696223.0051840395      0.1060000000      21.0842568875      0.1685076207      0.0000000000
0.1725071496     23518665.3755820282      0.1080000000      20.6007117848      0.1730212221      0.0000000000
0.1769995155     20770544.3000220098      0.1100000000      20.1592274439      0.1775873541      0.0000000000
0.1815449223     18383334.6376899369      0.1120000000      19.7543322463      0.1822102956      0.0000000000
0.1861165186     16314601.5651837271      0.1140000000      19.3838802060      0.1868628067      0.0000000000
0.1906647081     14533213.4745982420      0.1160000000      19.0472224087      0.1914944110      0.0000000000
0.1952326911     12977932.9608228412      0.1180000000      18.7371514787      0.1961490939      0.0000000000
0.1998365082     11611142.0986934379      0.1200000000      18.4497080079      0.2008432507      0.0000000000
0.2044869879     10404331.0735133197      0.1220000000      18.1819597847      0.2055879994      0.0000000000
0.2091931574      9334720.4636377692      0.1240000000      17.9315647404      0.2103926473      0.0000000000
0.2139632122      8383696.0919341212      0.1260000000      17.6965964482      0.2152656775      0.0000000000
0.2188049027      7535810.6414815187      0.1280000000      17.4754422593      0.2202151410      0.0000000000
0.2237257274      6778123.2840691702      0.1300000000      17.2667389816      0.2252488543      0.0000000000
0.2287330245      6099686.0264933286      0.1320000000      17.0693240405      0.2303744929      0.0000000000
0.2338340331      5491175.8059123401      0.1340000000      16.8822003241      0.2355996545      0.0000000000
0.2390359209      4944597.1465128912      0.1360000000      16.7045082504      0.2409318874      0.0000000000
0.2443458027      4453055.3507814100      0.1380000000      16.5355038206      0.2463787107      0.0000000000
0.2497707456      4010569.1533801393      0.1400000000      16.3745405269      0.2519476202      0.0000000000
0.2553177722      3611924.9213971202      0.1420000000      16.2210546023      0.2576460928      0.0000000000
0.2609938547      3252556.1605937523      0.1440000000      16.0745533655      0.2634815812      0.0000000000
0.2668059124      2928444.3212363687      0.1460000000      15.9346045390      0.2694615123      0.0000000000
0.2727607972      2636039.6582602295      0.1480000000      15.8008279378      0.2755932737      0.0000000000
0.2788652858      2372192.8805770515      0.1500000000      15.6728877999      0.2818842061      0.0000000000
0.2851260665      2134101.4435623037      0.1520000000      15.5504874724      0.2883415911      0.0000000000
0.2915497286      1919260.8587128401      0.1540000000      15.4333624004      0.2949726417      0.0000000000
0.2981427242      1725429.5746601624      0.1560000000      15.3212777818      0.3017844628      0.0000000000
0.3049113855      1550592.5183544022      0.1580000000      15.2140220681      0.3087840709      0.0000000000
0.3118618881      1392936.2194851437      0.1600000000      15.1114054955      0.3159783564      0.0000000000
0.3190002355      1250824.0639473391      0.1620000000      15.0132557683      0.3233740693      0.0000000000
0.3263322400      1122776.8073155619      0.1640000000      14.9194158833      0.3309777986      0.0000000000
0.3338635075      1007455.5697336717      0.1660000000      14.8297418599      0.3387959588      0.0000000000
0.3415994182       903646.7845245302      0.1680000000      14.7441006898      0.3468347690      0.0000000000
0.3495451048       810249.6559512363      0.1700000000      14.6623681923      0.3551002312      0.0000000000
0.3577054395       726265.1406960501      0.1720000000      14.5844282522      0.3635981170      0.0000000000
0.3660850076       650785.6820171666      0.1740000000      14.5101706271      0.3723339398      0.0000000000
0.3746881145       582987.3238203432      0.1760000000      14.4394905074      0.3813129621      0.0000000000
0.3835187352       522121.6137329629      0.1780000000      14.3722872544      0.3905401427      0.0000000000
0.3925805214       467508.9473830680      0.1800000000      14.3084635911      0.4000201431      0.0000000000
0.4018767805       418532.3771835801      0.1820000000      14.2479246865      0.4097573050      0.0000000000
0.4114104658       374632.2890171393      0.1840000000      14.1905783353      0.4197556392      0.0000000000
0.4211841588       335301.2382693452      0.1860000000      14.1363335505      0.4300188057      0.0000000000
0.4312000632       300079.4547517688      0.1880000000      14.0851007508      0.4405501057      0.0000000000
0.4414599922       268550.7544646410      0.1900000000      14.0367913934      0.4513524673      0.0000000000
0.4519653612       240338.6876410638      0.1920000000      13.9913176772      0.4624284354      0.0000000000
0.4627171810       215103.0030195261      0.1940000000      13.9485922032      0.4737801623      0.0000000000
0.4737160534       192536.6147283808      0.1960000000      13.9085284219      0.4854094015      0.0000000000
0.4849621640       172362.4875886710      0.1980000000      13.8710399620      0.4973174963      0.0000000000
0.4964552835       154331.0029652901      0.2000000000      13.8360409439      0.5095053797      0.0000000000
0.5081947645       138217.4410098082      0.2020000000      13.8034458560      0.5219735671      0.0000000000
0.5201795429       123819.7192271824      0.2040000000      13.7731697580      0.5347221549      0.0000000000
0.5324081384       110956.2719484474      0.2060000000      13.7451280864      0.5477508177      0.0000000000
0.5448786594        99464.1029924131      0.2080000000      13.7192370197      0.5610588100      0.0000000000
0.5575888080        89197.0097939777      0.2100000000      13.6954133010      0.5746449676      0.0000000000
0.5705358840        80023.9828569423      0.2120000000      13.6735744400      0.5885077081      0.0000000000
0.5837167963        71827.6992763232      0.2140000000      13.6536389010      0.6026450392      0.0000000000
0.5971280675        64503.1834994269      0.2160000000      13.6355260389      0.6170545591      0.0000000000
0.6107658464        57956.5655663923      0.2180000000      13.6191563438      0.6317334667      0.0000000000
0.6246259187        52103.9580654590      0.2200000000      13.6044513833      0.6466785674      0.0000000000
0.6387037186        46870.4462427708      0.2220000000      13.5913341186      0.6618862823      0.0000000000
0.6529943435        42189.1506990459      0.2240000000      13.5797287833      0.6773526594      0.0000000000
0.6674925657        38000.4132479017      0.2260000000      13.5695611042      0.6930733816      0.0000000000
0.6821928508        34251.0118816481      0.2280000000      13.5607583054      0.7090437827      0.0000000000
0.6970893700        30893.5070221934      0.2300000000      13.5532491795      0.7252588560      0.0000000000
0.7121760200        27885.6190717195      0.2320000000      13.5469643707      0.7417132716      0.0000000000
0.7274464370        25189.6681172717      0.2340000000      13.5418360037      0.7584013876      0.0000000000
0.7428940163        22772.0923114784      0.2360000000      13.5377980918      0.7753172672      0.0000000000
0.7585119290        20602.9963149580      0.2380000000      13.5347865136      0.7924546930      0.0000000000
0.7742931422        18655.7526183045      0.2400000000      13.5327389340      0.8098071850      0.0000000000
0.7902304350        16906.6480995275      0.2420000000      13.5315949117      0.8273680144      0.0000000000
0.8063164201        15334.5612973395      0.2440000000      13.5312959475      0.8451302238      0.0000000000
0.8225435595        13920.6841087183      0.2460000000      13.5317853921      0.8630866408      0.0000000000
0.8389041870        12648.2604851626      0.2480000000      13.5330085988      0.8812299001      0.0000000000
0.8553905222        11502.3661658072      0.2500000000      13.5349127777      0.8995524551      0.0000000000
0.8719946946        10469.7007333643      0.2520000000      13.5374471006      0.9180466024      0.0000000000
0.8887087567         9538.4147481754      0.2540000000      13.5405626356      0.9367044931      0.0000000000
0.9055247064         8697.9427644361      0.2560000000      13.5442124333      0.9555181559      0.0000000000
0.9224345008         7938.8649541771      0.2580000000      13.5483512108      0.9744795098      0.0000000000
0.9394300775         7252.7794885293      0.2600000000      13.5529358408      0.9935803860      0.0000000000
0.9565033673         6632.1901833270      0.2620000000      13.5579247483      1.0128125407      0.0000000000
0.9736463138         6070.4056275677      0.2640000000      13.5632783922      1.0321676754      0.0000000000
0.9908508870         5561.4503966746      0.2660000000      13.5689588020      1.0516374507      0.0000000000
1.0081090995         5099.9876038137      0.2680000000      13.5749298928      1.0712135040      0.0000000000
1.0254130205         4681.2466659437      0.2700000000      13.5811572176      1.0908874643      0.0000000000
1.0427547897         4300.9617471799      0.2720000000      13.5876079461      1.1106509674      0.0000000000
1.0601266305         3955.3167418810      0.2740000000      13.5942509475      1.1304956707      0.0000000000
1.0775208618         3640.8963145037      0.2760000000      13.6010566340      1.1504132668      0.0000000000
1.0949299108         3354.6409217252      0.2780000000      13.6079968960      1.1703954975      0.0000000000
1.1123463224         3093.8097312558      0.2800000000      13.6150451788      1.1904341657      0.0000000000
1.1297627710         2855.9447460954      0.2820000000      13.6221763722      1.2105211491      0.0000000000
1.1471720685         2638.8410013440      0.2840000000      13.6293667088      1.2306484104      0.0000000000
1.1645671735         2440.5193188811      0.2860000000      13.6365938033      1.2508080086      0.0000000000
1.1819411994         2259.2017672684      0.2880000000      13.6438365614      1.2709921095      0.0000000000
1.1992874216         2093.2901852342      0.2900000000      13.6510751811      1.2911929959      0.0000000000
1.2165992840         1941.3473506762      0.2920000000      13.6582910220      1.3114030759      0.0000000000
1.2338704023         1802.0797924724      0.2940000000      13.6654666430      1.3316148890      0.0000000000
1.2510945739         1674.3225553692      0.2960000000      13.6725857282      1.3518211186      0.0000000000
1.2682657778         1557.0258933798      0.2980000000      13.6796329997      1.3720145949      0.0000000000
1.2853781811         1449.2429753460      0.3000000000      13.6865942817      1.3921883035      0.0000000000
1.3024261431         1350.1194640246      0.3020000000      13.6934563465      1.4123353930      0.0000000000
1.3194042079         1258.8838130660      0.3040000000      13.7002069011      1.4324491682      0.0000000000
1.3363071215         1174.8388654874      0.3060000000      13.7068345818      1.4525231127      0.0000000000
1.3531298235         1097.3540169631      0.3080000000      13.7133289329      1.4725508815      0.0000000000
1.3698674493         1025.8587152191      0.3100000000      13.7196802250      1.4925263061      0.0000000000
1.3865153319          959.8361423343      0.3120000000      13.7258796387      1.5124433988      0.0000000000
1.4030689998          898.8180798466      0.3140000000      13.7319189960      1.5322963533      0.0000000000
1.4195241784          842.3797651238      0.3160000000      13.7377909263      1.5520795484      0.0000000000
1.4358767870          790.1357906451      0.3180000000      13.7434886850      1.5717875475      0.0000000000
1.4521229389          741.7360435717      0.3200000000      13.7490061870      1.5914151010      0.0000000000
1.4682589385          696.8623828394      0.3220000000      13.7543379883      1.6109571456      0.0000000000
1.4842812795          655.2253867441      0.3240000000      13.7594791774      1.6304088049      0.0000000000
1.5001866424          616.5617435556      0.3260000000      13.7644254237      1.6497653886      0.0000000000
1.5159718922          580.6314756261      0.3280000000      13.7691729319      1.6690223929      0.0000000000
1.5316340743          547.2159637626      0.3300000000      13.7737183720      1.6881754975      0.0000000000
1.5471704125          516.1157145308      0.3320000000      13.7780588970      1.7072205660      0.0000000000
1.5625783043          487.1487195188      0.3340000000      13.7821920761      1.7261536432      0.0000000000
1.5778553184          460.1486198632      0.3360000000      13.7861159232      1.7449709538      0.0000000000
1.5929991903          434.9634276259      0.3380000000      13.7898288350      1.7636688997      0.0000000000
1.6080078181          411.4540983986      0.3400000000      13.7933295386      1.7822440574      0.0000000000
1.6228792591          389.4933333165      0.3420000000      13.7966171528      1.8006931763      0.0000000000
1.6376117252          368.9645197961      0.3440000000      13.7996910837      1.8190131748      0.0000000000
1.6522035786          349.7608067099      0.3460000000      13.8025510550      1.8372011379      0.0000000000
1.6666533280          331.7841222317      0.3480000000      13.8051970754      1.8552543141      0.0000000000
1.6809596233          314.9444927908      0.3500000000      13.8076294056      1.8731701114      0.0000000000
1.6951212522          299.1592250300      0.3520000000      13.8098485554      1.8909460952      0.0000000000
1.7091371327          284.3523385879      0.3540000000      13.8118552477      1.9085799804      0.0000000000
1.7230063183          270.4539488199      0.3560000000      13.8136504593      1.9260696401      0.0000000000
1.7367279799          257.3997003331      0.3580000000      13.8152353292      1.9434130853      0.0000000000
1.7503014098          245.1303569064      0.3600000000      13.8166111878      1.9606084710      0.0000000000
1.7637260161          233.5912849360      0.3620000000      13.8177795206      1.9776540914      0.0000000000
1.7770013173          222.7321346720      0.3640000000      13.8187419905      1.9945483746      0.0000000000
1.7901269392          212.5064009231      0.3660000000      13.8195003990      2.0112898798      0.0000000000
1.8031026091          202.8711645006      0.3680000000      13.8200566513      2.0278772929      0.0000000000
1.8159281530          193.7867562476      0.3700000000      13.8204128129      2.0443094227      0.0000000000
1.8286034907          185.2164882810      0.3720000000      13.8205710353      2.0605851973      0.0000000000
1.8411286320          177.1264254984      0.3740000000      13.8205335655      2.0767036599      0.0000000000
1.8535036727          169.4851459218      0.3760000000      13.8203027515      2.0926639657      0.0000000000
1.8657287906          162.2635329048      0.3780000000      13.8198810125      2.1084653772      0.0000000000
1.8778042420          155.4346043124      0.3800000000      13.8192708537      2.1241072612      0.0000000000
1.8897303572          148.9733323376      0.3820000000      13.8184748123      2.1395890844      0.0000000000
1.9015075378          142.8564748808      0.3840000000      13.8174955213      2.1549104106      0.0000000000
1.9131362528          137.0624617153      0.3860000000      13.8163356532      2.1700708967      0.0000000000
1.9246170347          131.5712455308      0.3880000000      13.8149979051      2.1850702886      0.0000000000
1.9359504766          126.3641840944      0.3900000000      13.8134850204      2.1999084186      0.0000000000
1.9471372292          121.4239328269      0.3920000000      13.8117997801      2.2145852016      0.0000000000
1.9581779971          116.7343486642      0.3940000000      13.8099449871      2.2291006318      0.0000000000
1.9690735355          112.2803928081      0.3960000000      13.8079234691      2.2434547791      0.0000000000
1.9798246483          108.0480557639      0.3980000000      13.8057380530      2.2576477861      0.0000000000
1.9904321841          104.0242636432      0.4000000000      13.8033915863      2.2716798655      0.0000000000
2.0008970342          100.1968270426      0.4020000000      13.8008869407      2.2855512962      0.0000000000
2.0112201295           96.5543637945      0.4040000000      13.7982269602      2.2992624206      0.0000000000
2.0214024379           93.0862470804      0.4060000000      13.7954145215      2.3128136416      0.0000000000
2.0314449620           89.7825349366      0.4080000000      13.7924524606      2.3262054203      0.0000000000
2.0413487367           86.6339441780      0.4100000000      13.7893436380      2.3394382722      0.0000000000
2.0511148267           83.6317826765      0.4120000000      13.7860908913      2.3525127656      0.0000000000
2.0607443245           80.7679150931      0.4140000000      13.7826970604      2.3654295184      0.0000000000
2.0702383480           78.0347213596      0.4160000000      13.7791649266      2.3781891953      0.0000000000
2.0795980386           75.4250663262      0.4180000000      13.7754973072      2.3907925060      0.0000000000
2.0888245596           72.9322557684      0.4200000000      13.7716969776      2.4032402028      0.0000000000
2.0979190935           70.5500138159      0.4220000000      13.7677666839      2.4155330775      0.0000000000
2.1068828407           68.2724491592      0.4240000000      13.7637091657      2.4276719597      0.0000000000
2.1157170179           66.0940317386      0.4260000000      13.7595271170      2.4396577147      0.0000000000
2.1244228561           64.0095684489      0.4280000000      13.7552232352      2.4514912416      0.0000000000
2.1330015995           62.0141738632      0.4300000000      13.7508001756      2.4631734709      0.0000000000
2.1414545032           60.1032594683      0.4320000000      13.7462605504      2.4747053621      0.0000000000
2.1497828325           58.2725065416      0.4340000000      13.7416069669      2.4860879031      0.0000000000
2.1579878613           56.5178500408      0.4360000000      13.7368419918      2.4973221073      0.0000000000
2.1660708707           54.8354639966      0.4380000000      13.7319681596      2.5084090124      0.0000000000
2.1740331478           53.2217426859      0.4400000000      13.7269879788      2.5193496782      0.0000000000
2.1818759847           51.6732899542      0.4420000000      13.7219038995      2.5301451857      0.0000000000
2.1896006769           50.1869004720      0.4440000000      13.7167183900      2.5407966349      0.0000000000
2.1972085229           48.7595541450      0.4460000000      13.7114338325      2.5513051438      0.0000000000
2.2047008227           47.3883987730      0.4480000000      13.7060526094      2.5616718468      0.0000000000
2.2120788770           46.0707417560      0.4500000000      13.7005770496      2.5718978928      0.0000000000
2.2193439862           44.8040405840      0.4520000000      13.6950094601      2.5819844448      0.0000000000
2.2264974498           43.5858923581      0.4540000000      13.6893521130      2.5919326779      0.0000000000
2.2335405653           42.4140251181      0.4560000000      13.6836072193      2.6017437787      0.0000000000
