# M(M_sol)                 Lambda          n_Bc(fm^-3)         R(km)            m_B(M_sol)        m_Bquar/M_B
0.1524679353     39300384.6257299259      0.1040000000      22.7684307855      0.1526832785      0.0000000000
0.1570409899     33808101.2889153957      0.1060000000      22.0441533360      0.1573177968      0.0000000000
0.1616961099     29190153.7288189717      0.1080000000      21.3964754654      0.1620385678      0.0000000000
0.1664328467     25285416.7018083036      0.1100000000      20.8143548065      0.1668452895      0.0000000000
0.1712511242     21967534.3293435387      0.1120000000      20.2887315227      0.1717380403      0.0000000000
0.1761170944     19154158.0730509274      0.1140000000      19.8152444363      0.1766825724      0.0000000000
0.1809774817     16780209.5377239287      0.1160000000      19.3910923058      0.1816247853      0.0000000000
0.1858720451     14748904.3464386892      0.1180000000      19.0060567421      0.1866051304      0.0000000000
0.1908129634     12998923.4547487255      0.1200000000      18.6542481559      0.1916360773      0.0000000000
0.1958073472     11483707.3230186049      0.1220000000      18.3312307832      0.1967249650      0.0000000000
0.2008605880     10166310.2592077125      0.1240000000      18.0334406027      0.2018774007      0.0000000000
0.2059773133      9016811.1375143323      0.1260000000      17.7579356674      0.2070982286      0.0000000000
0.2111617596      8010646.9942658804      0.1280000000      17.5022464685      0.2123919085      0.0000000000
0.2164179603      7127467.0642183172      0.1300000000      17.2642788792      0.2177627073      0.0000000000
0.2217498354      6350279.8149510166      0.1320000000      17.0422406435      0.2232147898      0.0000000000
0.2271612449      5664797.9040302560      0.1340000000      16.8345867812      0.2287522735      0.0000000000
0.2326560166      5058945.8520196676      0.1360000000      16.6399783961      0.2343792578      0.0000000000
0.2382379638      4522459.7335268101      0.1380000000      16.4572480962      0.2400998412      0.0000000000
0.2439108904      4046580.9871604051      0.1400000000      16.2853739174      0.2459181285      0.0000000000
0.2496785951      3623798.3523855172      0.1420000000      16.1234565770      0.2518382342      0.0000000000
0.2555448714      3247651.2037586547      0.1440000000      15.9707027115      0.2578642833      0.0000000000
0.2615135031      2912556.9077243228      0.1460000000      15.8264083797      0.2640004079      0.0000000000
0.2675882607      2613680.1512760981      0.1480000000      15.6899483662      0.2702507431      0.0000000000
0.2737728941      2346816.9733442995      0.1500000000      15.5607643180      0.2766194202      0.0000000000
0.2800711274      2108303.4649939998      0.1520000000      15.4383566430      0.2831105618      0.0000000000
0.2864866576      1894936.5255431645      0.1540000000      15.3222768990      0.2897282816      0.0000000000
0.2930231167      1703909.5543711847      0.1560000000      15.2121211215      0.2964766446      0.0000000000
0.2996841085      1532757.4786501343      0.1580000000      15.1075248919      0.3033597062      0.0000000000
0.3064731686      1379309.8080372296      0.1600000000      15.0081578725      0.3103814714      0.0000000000
0.3133937642      1241652.0457304607      0.1620000000      14.9137201313      0.3175458943      0.0000000000
0.3204492844      1118091.8753672934      0.1640000000      14.8239385824      0.3248568691      0.0000000000
0.3276430289      1007130.9551397235      0.1660000000      14.7385637836      0.3323182181      0.0000000000
0.3349781998       907440.2862915002      0.1680000000      14.6573673033      0.3399336837      0.0000000000
0.3424578931       817839.1920378385      0.1700000000      14.5801392737      0.3477069198      0.0000000000
0.3500850872       737277.2865407391      0.1720000000      14.5066864168      0.3556414796      0.0000000000
0.3578626270       664819.0888150359      0.1740000000      14.4368301151      0.3637407996      0.0000000000
0.3657932394       599630.0097850094      0.1760000000      14.3704048281      0.3720082151      0.0000000000
0.3738794887       540964.9768378605      0.1780000000      14.3072566680      0.3804469143      0.0000000000
0.3821237913       488158.0642955119      0.1800000000      14.2472423055      0.3890599528      0.0000000000
0.3905283990       440613.4976395802      0.1820000000      14.1902275851      0.3978502364      0.0000000000
0.3990953932       397797.8729162677      0.1840000000      14.1360867850      0.4068205144      0.0000000000
0.4078266750       359233.1840169925      0.1860000000      14.0847014425      0.4159733687      0.0000000000
0.4167239582       324490.9042000839      0.1880000000      14.0359600305      0.4253112064      0.0000000000
0.4257887622       293186.5340492011      0.1900000000      13.9897568453      0.4348362509      0.0000000000
0.4350224050       264974.9965905618      0.1920000000      13.9459917246      0.4445505349      0.0000000000
0.4444259971       239546.3637808186      0.1940000000      13.9045693375      0.4544558920      0.0000000000
0.4540004353       216622.2045840697      0.1960000000      13.8653986900      0.4645539501      0.0000000000
0.4637463997       195952.2758112430      0.1980000000      13.8283928698      0.4748461267      0.0000000000
0.4736643454       177311.6494211835      0.2000000000      13.7934684937      0.4853336194      0.0000000000
0.4837545027       160498.0601642739      0.2020000000      13.7605454839      0.4960174044      0.0000000000
0.4940168724       145329.5879276893      0.2040000000      13.7295468798      0.5068982305      0.0000000000
0.5044512220       131642.5949841312      0.2060000000      13.7003983575      0.5179766137      0.0000000000
0.5150570863       119289.8737153390      0.2080000000      13.6730282560      0.5292528360      0.0000000000
0.5258337646       108138.9332181774      0.2100000000      13.6473670692      0.5407269411      0.0000000000
0.5367803214        98070.5980135223      0.2120000000      13.6233477047      0.5523987332      0.0000000000
0.5478955874        88977.5780565097      0.2140000000      13.6009050912      0.5642677763      0.0000000000
0.5591781576        80763.3346427537      0.2160000000      13.5799758741      0.5763333905      0.0000000000
0.5706263965        73340.9740701288      0.2180000000      13.5604987237      0.5885946554      0.0000000000
0.5822384392        66632.2797667808      0.2200000000      13.5424139725      0.6010504094      0.0000000000
0.5940121942        60566.8456258624      0.2220000000      13.5256634665      0.6136992504      0.0000000000
0.6059453479        55081.3049739802      0.2240000000      13.5101908190      0.6265395390      0.0000000000
0.6180353691        50118.6085716880      0.2260000000      13.4959410726      0.6395694004      0.0000000000
0.6302795132        45627.3952673275      0.2280000000      13.4828606191      0.6527867273      0.0000000000
0.6426748294        41561.4344297659      0.2300000000      13.4708974946      0.6661891856      0.0000000000
0.6552181653        37879.1000260228      0.2320000000      13.4600008867      0.6797742163      0.0000000000
0.6679061751        34542.9090781094      0.2340000000      13.4501214310      0.6935390430      0.0000000000
0.6807353261        31519.1173093098      0.2360000000      13.4412111388      0.7074806759      0.0000000000
0.6937019062        28777.3352245521      0.2380000000      13.4332232371      0.7215959186      0.0000000000
0.7068020339        26290.1895238575      0.2400000000      13.4261122933      0.7358813756      0.0000000000
0.7200316638        24033.0318676588      0.2420000000      13.4198340615      0.7503334570      0.0000000000
0.7333865983        21983.6568096436      0.2440000000      13.4143455841      0.7649483884      0.0000000000
0.7468624950        20122.0585726865      0.2460000000      13.4096051231      0.7797222176      0.0000000000
0.7604548779        18430.2106854913      0.2480000000      13.4055721939      0.7946508241      0.0000000000
0.7741591445        16891.8701307340      0.2500000000      13.4022074517      0.8097299251      0.0000000000
0.7879705786        15492.3942514502      0.2520000000      13.3994727717      0.8249550871      0.0000000000
0.8018843582        14218.5814300632      0.2540000000      13.3973311808      0.8403217339      0.0000000000
0.8158955665        13058.5303769279      0.2560000000      13.3957469108      0.8558251556      0.0000000000
0.8299992018        12001.5055673660      0.2580000000      13.3946853326      0.8714605185      0.0000000000
0.8441901878        11037.8219025800      0.2600000000      13.3941129570      0.8872228745      0.0000000000
0.8584633835        10158.7405938065      0.2620000000      13.3939974110      0.9031071709      0.0000000000
0.8728135935         9356.3725870672      0.2640000000      13.3943073717      0.9191082600      0.0000000000
0.8872355779         8623.5972823174      0.2660000000      13.3950127410      0.9352209089      0.0000000000
0.9017240625         7953.9815172559      0.2680000000      13.3960844096      0.9514398096      0.0000000000
0.9162737478         7341.7148885111      0.2700000000      13.3974943757      0.9677595882      0.0000000000
0.9308793192         6781.5453505957      0.2720000000      13.3992156310      0.9841748146      0.0000000000
0.9455354558         6268.7257977532      0.2740000000      13.4012222572      1.0006800124      0.0000000000
0.9602368397         5798.9626750698      0.2760000000      13.4034893230      1.0172696677      0.0000000000
0.9749781651         5368.3710560397      0.2780000000      13.4059928925      1.0339382391      0.0000000000
0.9897541460         4973.4357662928      0.2800000000      13.4087100215      1.0506801658      0.0000000000
1.0045595253         4610.9735824461      0.2820000000      13.4116186842      1.0674898773      0.0000000000
1.0193890821         4278.1011662407      0.2840000000      13.4146978243      1.0843618015      0.0000000000
1.0342376393         3972.2061319746      0.2860000000      13.4179272782      1.1012903730      0.0000000000
1.0491000710         3690.9202333176      0.2880000000      13.4212877984      1.1182700413      0.0000000000
1.0639713095         3432.0949790489      0.2900000000      13.4247610021      1.1352952792      0.0000000000
1.0788463512         3193.7815286264      0.2920000000      13.4283293552      1.1523605890      0.0000000000
1.0937202631         2974.2104108807      0.2940000000      13.4319761474      1.1694605110      0.0000000000
1.1085881887         2771.7746757527      0.2960000000      13.4356854476      1.1865896295      0.0000000000
1.1234453526         2585.0142402590      0.2980000000      13.4394421779      1.2037425798      0.0000000000
1.1382870665         2412.6016824865      0.3000000000      13.4432319796      1.2209140542      0.0000000000
1.1531087330         2253.3297168002      0.3020000000      13.4470412358      1.2380988082      0.0000000000
1.1679058506         2106.0997120738      0.3040000000      13.4508570344      1.2552916663      0.0000000000
1.1826740155         1969.9113432308      0.3060000000      13.4546671997      1.2724875250      0.0000000000
1.1974089281         1843.8535094239      0.3080000000      13.4584601796      1.2896813612      0.0000000000
1.2121063941         1727.0958083108      0.3100000000      13.4622251182      1.3068682342      0.0000000000
1.2267623276         1618.8808710961      0.3120000000      13.4659517224      1.3240432909      0.0000000000
1.2413727541         1518.5179295387      0.3140000000      13.4696304197      1.3412017695      0.0000000000
1.2559338117         1425.3762328960      0.3160000000      13.4732520787      1.3583390025      0.0000000000
1.2704417562         1338.8798935118      0.3180000000      13.4768082403      1.3754504237      0.0000000000
1.2848929512         1258.5025461325      0.3200000000      13.4802909484      1.3925315580      0.0000000000
1.2992838865         1183.7628353752      0.3220000000      13.4836927853      1.4095780437      0.0000000000
1.3136111667         1114.2204531029      0.3240000000      13.4870068178      1.4265856211      0.0000000000
1.3278715158         1049.4724413277      0.3260000000      13.4902266065      1.4435501385      0.0000000000
1.3420617765          989.1497328438      0.3280000000      13.4933461800      1.4604675533      0.0000000000
1.3561789109          932.9140511691      0.3300000000      13.4963599606      1.4773339336      0.0000000000
1.3702200001          880.4553603555      0.3320000000      13.4992628808      1.4941454596      0.0000000000
1.3841822440          831.4891425934      0.3340000000      13.5020502354      1.5108984247      0.0000000000
1.3980629602          785.7542912427      0.3360000000      13.5047176963      1.5275892351      0.0000000000
1.4118595837          743.0110064964      0.3380000000      13.5072613377      1.5442144114      0.0000000000
1.4255696656          703.0389343389      0.3400000000      13.5096775547      1.5607705882      0.0000000000
1.4391908721          665.6354605319      0.3420000000      13.5119631211      1.5772545144      0.0000000000
1.4527209832          630.6142101408      0.3440000000      13.5141151048      1.5936630527      0.0000000000
1.4661578910          597.8035755177      0.3460000000      13.5161309069      1.6099931797      0.0000000000
1.4794995983          567.0456214954      0.3480000000      13.5180081866      1.6262419843      0.0000000000
1.4927442168          538.1947215535      0.3500000000      13.5197449192      1.6424066686      0.0000000000
1.5058899652          511.1166350454      0.3520000000      13.5213393060      1.6584845456      0.0000000000
1.5189351675          485.6875030526      0.3540000000      13.5227898486      1.6744730389      0.0000000000
1.5318782505          461.7930374727      0.3560000000      13.5240952403      1.6903696810      0.0000000000
1.5447177422          439.3276659673      0.3580000000      13.5252544264      1.7061721130      0.0000000000
1.5574522692          418.1938478999      0.3600000000      13.5262665598      1.7218780820      0.0000000000
1.5700805548          398.3013754916      0.3620000000      13.5271309935      1.7374854404      0.0000000000
1.5826014165          379.5668381195      0.3640000000      13.5278472783      1.7529921442      0.0000000000
1.5950137635          361.9129768863      0.3660000000      13.5284151273      1.7683962510      0.0000000000
1.6073165949          345.2683072853      0.3680000000      13.5288344405      1.7836959186      0.0000000000
1.6195089942          329.5665590290      0.3700000000      13.5291052736      1.7988894001      0.0000000000
1.6315901367          314.7462903878      0.3720000000      13.5292278315      1.8139750534      0.0000000000
1.6435592730          300.7505296908      0.3740000000      13.5292024591      1.8289513225      0.0000000000
1.6554157360          287.5263857830      0.3760000000      13.5290296188      1.8438167464      0.0000000000
1.6671589356          275.0247381649      0.3780000000      13.5287099346      1.8585699548      0.0000000000
1.6787883570          263.1999858526      0.3800000000      13.5282441186      1.8732096653      0.0000000000
1.6903035574          252.0097037825      0.3820000000      13.5276329663      1.8877346821      0.0000000000
1.7017041645          241.4144578611      0.3840000000      13.5268774414      1.9021438933      0.0000000000
1.7129898734          231.3775432254      0.3860000000      13.5259785320      1.9164362691      0.0000000000
1.7241604445          221.8647877918      0.3880000000      13.5249373633      1.9306108594      0.0000000000
1.7352157012          212.8443632987      0.3900000000      13.5237551034      1.9446667922      0.0000000000
1.7461555274          204.2866189477      0.3920000000      13.5224330175      1.9586032705      0.0000000000
1.7569798654          196.1638803278      0.3940000000      13.5209724455      1.9724195715      0.0000000000
1.7676887132          188.4503616717      0.3960000000      13.5193747626      1.9861150428      0.0000000000
1.7782821230          181.1219691303      0.3980000000      13.5176414272      1.9996891020      0.0000000000
1.7887601984          174.1562186970      0.4000000000      13.5157739364      2.0131412331      0.0000000000
1.7991230926          167.5320945659      0.4020000000      13.5137738533      2.0264709857      0.0000000000
1.8093710059          161.2299615686      0.4040000000      13.5116427448      2.0396779717      0.0000000000
1.8195041842          155.2314568889      0.4060000000      13.5093822581      2.0527618641      0.0000000000
1.8295229165          149.5193913698      0.4080000000      13.5069940618      2.0657223949      0.0000000000
1.8394275332          144.0776769923      0.4100000000      13.5044798544      2.0785593527      0.0000000000
1.8492184042          138.8912500055      0.4120000000      13.5018413594      2.0912725810      0.0000000000
1.8588959369          133.9459929432      0.4140000000      13.4990803312      2.1038619763      0.0000000000
1.8684605741          129.2286740545      0.4160000000      13.4961985399      2.1163274859      0.0000000000
1.8779127931          124.7268858066      0.4180000000      13.4931977775      2.1286691062      0.0000000000
1.8872531030          120.4289779892      0.4200000000      13.4900798473      2.1408868813      0.0000000000
1.8964820437          116.3240250022      0.4220000000      13.4868465714      2.1529809004      0.0000000000
1.9056001837          112.4017582777      0.4240000000      13.4834997758      2.1649512964      0.0000000000
1.9146081190          108.6525368645      0.4260000000      13.4800412937      2.1767982443      0.0000000000
1.9235064715          105.0672898228      0.4280000000      13.4764729716      2.1885219593      0.0000000000
1.9322958873          101.6374963703      0.4300000000      13.4727966510      2.2001226954      0.0000000000
1.9409770354           98.3551340141      0.4320000000      13.4690141751      2.2116007433      0.0000000000
1.9495506062           95.2126552923      0.4340000000      13.4651273900      2.2229564294      0.0000000000
1.9580173104           92.2029520889      0.4360000000      13.4611381426      2.2341901138      0.0000000000
1.9663778774           89.3193261746      0.4380000000      13.4570482597      2.2453021891      0.0000000000
1.9746330542           86.5554683551      0.4400000000      13.4528595882      2.2562930788      0.0000000000
1.9827836044           83.9054310686      0.4420000000      13.4485739477      2.2671632357      0.0000000000
1.9908303066           81.3636025181      0.4440000000      13.4441931539      2.2779131411      0.0000000000
1.9987739535           78.9246852798      0.4460000000      13.4397190138      2.2885433026      0.0000000000
2.0066153509           76.5836847692      0.4480000000      13.4351533236      2.2990542537      0.0000000000
2.0143553165           74.3358775271      0.4500000000      13.4304978829      2.3094465517      0.0000000000
2.0219946791           72.1768109324      0.4520000000      13.4257544518      2.3197207773      0.0000000000
2.0295342774           70.1022666637      0.4540000000      13.4209247891      2.3298775323      0.0000000000
2.0369749593           68.1082601623      0.4560000000      13.4160106464      2.3399174400      0.0000000000
2.0443175806           66.1910251403      0.4580000000      13.4110137522      2.3498411421      0.0000000000
2.0515630049           64.3469948077      0.4600000000      13.4059358176      2.3596492997      0.0000000000
2.0587121022           62.5727950045      0.4620000000      13.4007785420      2.3693425906      0.0000000000
