# M(M_sol)                 Lambda          n_Bc(fm^-3)         R(km)            m_B(M_sol)        m_Bquar/M_B
0.1525540291     25489973.0054151826      0.1350000000      20.4235599711      0.1527476912      0.0000000000
0.1564203747     22250668.2577043287      0.1370000000      19.8754965132      0.1566660800      0.0000000000
0.1604429482     19422708.1121011451      0.1390000000      19.3666795013      0.1607453113      0.0000000000
0.1646272992     16952617.0605417788      0.1410000000      18.8937336228      0.1649913073      0.0000000000
0.1689789684     14794549.7947727665      0.1430000000      18.4536768592      0.1694100063      0.0000000000
0.1735034835     12908948.4958857149      0.1450000000      18.0438623591      0.1740073596      0.0000000000
0.1782063341     11261528.1766459215      0.1470000000      17.6619305322      0.1787893072      0.0000000000
0.1830929632      9822452.9800196551      0.1490000000      17.3057673614      0.1837617707      0.0000000000
0.1881687239      8565694.3368984181      0.1510000000      16.9734727396      0.1889306095      0.0000000000
0.1934388975      7468488.3678107886      0.1530000000      16.6633300570      0.1943016412      0.0000000000
0.1989086562      6510901.8259529462      0.1550000000      16.3737839458      0.1998806040      0.0000000000
0.2045830474      5675465.9434017139      0.1570000000      16.1034202995      0.2056731416      0.0000000000
0.2104669771      4946857.2210906334      0.1590000000      15.8509481107      0.2116847872      0.0000000000
0.2165651977      4311636.9893294089      0.1610000000      15.6151867281      0.2179209520      0.0000000000
0.2228822773      3758016.5072455010      0.1630000000      15.3950514178      0.2243868938      0.0000000000
0.2294226011      3275658.6789495493      0.1650000000      15.1895440165      0.2310877193      0.0000000000
0.2361903455      2855503.2378192805      0.1670000000      14.9977435969      0.2380283577      0.0000000000
0.2431894600      2489613.1987944446      0.1690000000      14.8187981178      0.2452135429      0.0000000000
0.2504236603      2171039.2051156568      0.1710000000      14.6519170869      0.2526478056      0.0000000000
0.2578964137      1893701.5669945546      0.1730000000      14.4963667297      0.2603354588      0.0000000000
0.2656109092      1652285.4613165294      0.1750000000      14.3514635453      0.2682805667      0.0000000000
0.2735700733      1442147.5899555776      0.1770000000      14.2165708763      0.2764869601      0.0000000000
0.2817765418      1259234.0838268020      0.1790000000      14.0910940319      0.2849582075      0.0000000000
0.2902326363      1100008.7180490675      0.1810000000      13.9744760385      0.2936975893      0.0000000000
0.2989403739       961388.4764017541      0.1830000000      13.8661955659      0.3027081070      0.0000000000
0.3079014611       840687.5583629481      0.1850000000      13.7657644138      0.3119924762      0.0000000000
0.3171172629       735567.1680693851      0.1870000000      13.6727233355      0.3215530927      0.0000000000
0.3265888118       643992.1614703411      0.1890000000      13.5866409749      0.3313920401      0.0000000000
0.3363168046       564192.3880752438      0.1910000000      13.5071119899      0.3415110854      0.0000000000
0.3463015851       494628.7280207313      0.1930000000      13.4337542571      0.3519116585      0.0000000000
0.3565431456       433963.6462650336      0.1950000000      13.3662078234      0.3625948520      0.0000000000
0.3670411273       381034.9702117878      0.1970000000      13.3041332715      0.3735614189      0.0000000000
0.3777948122       334833.3346928971      0.1990000000      13.2472102783      0.3848117618      0.0000000000
0.3888031280       294482.1853724395      0.2010000000      13.1951364985      0.3963459358      0.0000000000
0.4000646468       259220.4235299598      0.2030000000      13.1476264482      0.4081636435      0.0000000000
0.4115775808       228387.2263217540      0.2050000000      13.1044098473      0.4202642281      0.0000000000
0.4233397958       201408.8642734493      0.2070000000      13.0652315244      0.4326466842      0.0000000000
0.4353488098       177787.2809017345      0.2090000000      13.0298502229      0.4453096531      0.0000000000
0.4476017863       157089.9426991424      0.2110000000      12.9980368623      0.4582514127      0.0000000000
0.4600955683       138941.2821514939      0.2130000000      12.9695756623      0.4714699091      0.0000000000
0.4728266581       123015.0856290004      0.2150000000      12.9442618717      0.4849627326      0.0000000000
0.4857912309       109027.9267333030      0.2170000000      12.9219010588      0.4987271278      0.0000000000
0.4989851593        96733.5234249517      0.2190000000      12.9023099577      0.5127600160      0.0000000000
0.5124040040        85917.7688415582      0.2210000000      12.8853143115      0.5270579818      0.0000000000
0.5260430343        76394.4807977536      0.2230000000      12.8707492907      0.5416172908      0.0000000000
0.5398972369        68001.6687127627      0.2250000000      12.8584585649      0.5564338955      0.0000000000
0.5539613288        60598.3500346322      0.2270000000      12.8482940547      0.5715034448      0.0000000000
0.5682297695        54061.7549488084      0.2290000000      12.8401154152      0.5868212937      0.0000000000
0.5826967752        48284.9173705170      0.2310000000      12.8337896710      0.6023825147      0.0000000000
0.5973563295        43174.5919650297      0.2330000000      12.8291906514      0.6181819052      0.0000000000
0.6122022061        38649.4436277047      0.2350000000      12.8261991846      0.6342140091      0.0000000000
0.6272279699        34638.4828471329      0.2370000000      12.8247017284      0.6504731132      0.0000000000
0.6424270077        31079.7183314954      0.2390000000      12.8245914210      0.6669532783      0.0000000000
0.6577925285        27918.9591183145      0.2410000000      12.8257662705      0.6836483350      0.0000000000
0.6733175925        25108.8285683327      0.2430000000      12.8281303246      0.7005519126      0.0000000000
0.6889951172        22607.8515485580      0.2450000000      12.8315922762      0.7176574422      0.0000000000
0.7048178998        20379.7131033574      0.2470000000      12.8360660553      0.7349581787      0.0000000000
0.7207786289        18392.5782447887      0.2490000000      12.8414700010      0.7524472100      0.0000000000
0.7368698975        16618.5218414782      0.2510000000      12.8477266192      0.7701174695      0.0000000000
0.7530842274        15033.0341081732      0.2530000000      12.8547629940      0.7879617594      0.0000000000
0.7694140779        13614.5792526344      0.2550000000      12.8625100170      0.8059727586      0.0000000000
0.7858518612        12344.2208445681      0.2570000000      12.8709022854      0.8241430376      0.0000000000
0.8023899652        11205.2949669638      0.2590000000      12.8798780906      0.8424650814      0.0000000000
0.8190207467        10183.1256520820      0.2610000000      12.8893791640      0.8609312803      0.0000000000
0.8357365741         9264.7749379926      0.2630000000      12.8993504554      0.8795339761      0.0000000000
0.8525298240         8438.8273369457      0.2650000000      12.9097400185      0.8982654564      0.0000000000
0.8693928978         7695.2042340851      0.2670000000      12.9204989806      0.9171179727      0.0000000000
0.8863182322         7024.9956943582      0.2690000000      12.9315810208      0.9360837503      0.0000000000
0.9032983189         6420.3214544626      0.2710000000      12.9429428482      0.9551550107      0.0000000000
0.9203257082         5874.2041127731      0.2730000000      12.9545435449      0.9743239742      0.0000000000
0.9373930230         5380.4589351483      0.2750000000      12.9663444683      0.9935828756      0.0000000000
0.9544929734         4933.6022264063      0.2770000000      12.9783096879      1.0129239809      0.0000000000
0.9716183611         4528.7635410750      0.2790000000      12.9904051204      1.0323395915      0.0000000000
0.9887620914         4161.6163095922      0.2810000000      13.0025989626      1.0518220591      0.0000000000
1.0059171841         3828.3116485915      0.2830000000      13.0148614449      1.0713637975      0.0000000000
1.0230767748         3525.4232600454      0.2850000000      13.0271644164      1.0909572852      0.0000000000
1.0402341332         3249.8982620707      0.2870000000      13.0394819019      1.1105950867      0.0000000000
1.0573826590         2999.0138403379      0.2890000000      13.0517893405      1.1302698491      0.0000000000
1.0745158979         2770.3394133480      0.2910000000      13.0640640271      1.1499743212      0.0000000000
1.0916275398         2561.7033086326      0.2930000000      13.0762846381      1.1697013526      0.0000000000
1.1087114297         2371.1632548002      0.2950000000      13.0884314720      1.1894439078      0.0000000000
1.1257615682         2196.9808076381      0.2970000000      13.1004860527      1.2091950677      0.0000000000
1.1427721197         2037.5984611862      0.2990000000      13.1124314686      1.2289480414      0.0000000000
1.1597374109         1891.6193414533      0.3010000000      13.1242517610      1.2486961654      0.0000000000
1.1766519395         1757.7899354362      0.3030000000      13.1359325048      1.2684329163      0.0000000000
1.1935103714         1634.9838921332      0.3050000000      13.1474600969      1.2881519082      0.0000000000
1.2103075469         1522.1886433527      0.3070000000      13.1588222326      1.3078469030      0.0000000000
1.2270384798         1418.4927226147      0.3090000000      13.1700074846      1.3275118110      0.0000000000
1.2436983595         1323.0753171062      0.3110000000      13.1810055133      1.3471406950      0.0000000000
1.2602825509         1235.1961909393      0.3130000000      13.1918067262      1.3667277728      0.0000000000
1.2767865954         1154.1876024476      0.3150000000      13.2024025215      1.3862674205      0.0000000000
1.2932062112         1079.4464046823      0.3170000000      13.2127851177      1.4057541743      0.0000000000
1.3095372914         1010.4274053246      0.3190000000      13.2229474496      1.4251827320      0.0000000000
1.3257759036          946.6373032769      0.3210000000      13.2328831464      1.4445479533      0.0000000000
1.3419182895          887.6296036393      0.3230000000      13.2425866334      1.4638448627      0.0000000000
1.3579608629          832.9994669248      0.3250000000      13.2520528917      1.4830686481      0.0000000000
1.3739002070          782.3798024659      0.3270000000      13.2612774574      1.5022146614      0.0000000000
1.3897330751          735.4374494663      0.3290000000      13.2702566732      1.5212784207      0.0000000000
1.4054563845          691.8695943699      0.3310000000      13.2789871366      1.5402556052      0.0000000000
1.4210672178          651.4009944643      0.3330000000      13.2874661828      1.5591420594      0.0000000000
1.4365628169          613.7810726413      0.3350000000      13.2956914192      1.5779337883      0.0000000000
1.4519405838          578.7817177691      0.3370000000      13.3036610743      1.5966269598      0.0000000000
1.4671980730          546.1949686366      0.3390000000      13.3113737136      1.6152178982      0.0000000000
1.4823329928          515.8311117337      0.3410000000      13.3188283085      1.6337030881      0.0000000000
1.4973431993          487.5169716812      0.3430000000      13.3260241984      1.6520791692      0.0000000000
1.5122266941          461.0942741003      0.3450000000      13.3329610363      1.6703429349      0.0000000000
1.5269816205          436.4183730818      0.3470000000      13.3396388621      1.6884913305      0.0000000000
1.5416062598          413.3568608533      0.3490000000      13.3460579669      1.7065214506      0.0000000000
1.5560990277          391.7884918621      0.3510000000      13.3522189274      1.7244305362      0.0000000000
1.5704584712          371.6021416143      0.3530000000      13.3581225816      1.7422159729      0.0000000000
1.5846832638          352.6959087445      0.3550000000      13.3637700108      1.7598752874      0.0000000000
1.5987722030          334.9762539408      0.3570000000      13.3691625262      1.7774061453      0.0000000000
1.6127242052          318.3572646740      0.3590000000      13.3743016142      1.7948063474      0.0000000000
1.6265383031          302.7599558677      0.3610000000      13.3791889842      1.8120738278      0.0000000000
1.6402136414          288.1117023587      0.3630000000      13.3838265173      1.8292066500      0.0000000000
1.6537494728          274.3456335499      0.3650000000      13.3882162509      1.8462030040      0.0000000000
1.6671451547          261.4001577191      0.3670000000      13.3923603625      1.8630612034      0.0000000000
1.6804001453          249.2184977598      0.3690000000      13.3962611695      1.8797796819      0.0000000000
1.6935140000          237.7482823133      0.3710000000      13.3999211278      1.8963569904      0.0000000000
1.7064863674          226.9411621533      0.3730000000      13.4033427648      1.9127917935      0.0000000000
1.7193169864          216.7524919155      0.3750000000      13.4065287722      1.9290828667      0.0000000000
1.7320056819          207.1409892273      0.3770000000      13.4094818936      1.9452290930      0.0000000000
1.7445523620          198.0684880402      0.3790000000      13.4122049716      1.9612294594      0.0000000000
1.7569570134          189.4996427243      0.3810000000      13.4147008633      1.9770830536      0.0000000000
1.7692197002          181.4017435232      0.3830000000      13.4169726237      1.9927890623      0.0000000000
1.7813405577          173.7444505708      0.3850000000      13.4190231804      2.0083467653      0.0000000000
1.7933197922          166.4996514180      0.3870000000      13.4208557131      2.0237555361      0.0000000000
1.8051576750          159.6412441646      0.3890000000      13.4224732506      2.0390148342      0.0000000000
1.8168545420          153.1450080239      0.3910000000      13.4238790689      2.0541242072      0.0000000000
1.8284107879          146.9884220338      0.3930000000      13.4250762281      2.0690832825      0.0000000000
1.8398268658          141.1505658422      0.3950000000      13.4260680111      2.0838917689      0.0000000000
1.8511032830          135.6119781396      0.3970000000      13.4268576832      2.0985494513      0.0000000000
1.8622405981          130.3545309081      0.3990000000      13.4274484021      2.1130561875      0.0000000000
1.8732394192          125.3613563418      0.4010000000      13.4278435083      2.1274119072      0.0000000000
1.8841004004          120.6167340854      0.4030000000      13.4280462488      2.1416166077      0.0000000000
1.8948242393          116.1059994435      0.4050000000      13.4280598468      2.1556703511      0.0000000000
1.9054116760          111.8154809687      0.4070000000      13.4278876467      2.1695732638      0.0000000000
1.9158634881          107.7324079478      0.4090000000      13.4275328203      2.1833255304      0.0000000000
1.9261804906          103.8448613522      0.4110000000      13.4269986815      2.1969273945      0.0000000000
1.9363635331          100.1416947225      0.4130000000      13.4262884553      2.2103791543      0.0000000000
1.9464134964           96.6124928126      0.4150000000      13.4254053121      2.2236811601      0.0000000000
1.9563312930           93.2475102489      0.4170000000      13.4243525543      2.2368338141      0.0000000000
1.9661178620           90.0376237309      0.4190000000      13.4231332633      2.2498375645      0.0000000000
1.9757741698           86.9742919531      0.4210000000      13.4217506755      2.2626929069      0.0000000000
1.9853012067           84.0495113615      0.4230000000      13.4202079385      2.2754003800      0.0000000000
1.9946999854           81.2557720827      0.4250000000      13.4185080733      2.2879605633      0.0000000000
2.0039715400           78.5860441306      0.4270000000      13.4166542995      2.3003740772      0.0000000000
2.0131169231           76.0337192519      0.4290000000      13.4146495942      2.3126415782      0.0000000000
2.0221372051           73.5925927560      0.4310000000      13.4124969814      2.3247637588      0.0000000000
2.0310334728           71.2568431393      0.4330000000      13.4101995011      2.3367413456      0.0000000000
2.0398068272           69.0209963666      0.4350000000      13.4077601122      2.3485750964      0.0000000000
2.0484583825           66.8799034203      0.4370000000      13.4051817255      2.3602657993      0.0000000000
2.0569892645           64.8287199260      0.4390000000      13.4024672148      2.3718142705      0.0000000000
2.0654006104           62.8628911812      0.4410000000      13.3996194993      2.3832213536      0.0000000000
2.0736935658           60.9781255895      0.4430000000      13.3966413821      2.3944879167      0.0000000000
2.0818692849           59.1703789467      0.4450000000      13.3935356323      2.4056148517      0.0000000000
2.0899289287           57.4358416703      0.4470000000      13.3903050129      2.4166030724      0.0000000000
2.0978736642           55.7709215558      0.4490000000      13.3869522292      2.4274535138      0.0000000000
2.1057046638           54.1722287247      0.4510000000      13.3834799972      2.4381671300      0.0000000000
2.1134231029           52.6365660224      0.4530000000      13.3798909112      2.4487448925      0.0000000000
2.1210301611           51.1609141860      0.4550000000      13.3761876207      2.4591877906      0.0000000000
2.1285270189           49.7424199948      0.4570000000      13.3723726512      2.4694968277      0.0000000000
2.1359148589           48.3783872956      0.4590000000      13.3684485115      2.4796730223      0.0000000000
2.1431948640           47.0662691439      0.4610000000      13.3644176918      2.4897174058      0.0000000000
2.1503682170           45.8036555353      0.4630000000      13.3602826435      2.4996310219      0.0000000000
2.1574360997           44.5882674255      0.4650000000      13.3560458133      2.5094149248      0.0000000000
2.1643996919           43.4179456954      0.4670000000      13.3517095010      2.5190701790      0.0000000000
2.1712601720           42.2906481202      0.4690000000      13.3472761347      2.5285978580      0.0000000000
2.1780187143           41.2044364524      0.4710000000      13.3427478785      2.5379990425      0.0000000000
2.1846764907           40.1574782815      0.4730000000      13.3381270697      2.5472748215      0.0000000000
2.1912346685           39.1480334845      0.4750000000      13.3334158983      2.5564262897      0.0000000000
2.1976944108           38.1744524352      0.4770000000      13.3286165381      2.5654545470      0.0000000000
2.2040568758           37.2351717319      0.4790000000      13.3237311650      2.5743606989      0.0000000000
2.2103232156           36.3287027968      0.4810000000      13.3187617921      2.5831458532      0.0000000000
2.2164945775           35.4536386104      0.4830000000      13.3137105956      2.5918111229      0.0000000000
2.2225721017           34.6086373341      0.4850000000      13.3085795140      2.6003576217      0.0000000000
2.2285569221           33.7924270314      0.4870000000      13.3033705762      2.6087864661      0.0000000000
2.2344501659           33.0037987709      0.4890000000      13.2980857799      2.6170987741      0.0000000000
2.2402529523           32.2416003613      0.4910000000      13.2927269773      2.6252956631      0.0000000000
2.2459663937           31.5047383206      0.4930000000      13.2872960862      2.6333782517      0.0000000000
