# M(M_sol)                 Lambda          n_Bc(fm^-3)         R(km)            m_B(M_sol)        m_Bquar/M_B
0.1502153067     49514978.2683594897      0.0890000000      24.1104611221      0.1504316900      0.0000000000
0.1571584467     39832641.0051211342      0.0910000000      22.9676909701      0.1574701351      0.0000000000
0.1642783847     32329164.8253138028      0.0930000000      22.0070446231      0.1646946843      0.0000000000
0.1715641227     26439994.9132249765      0.0950000000      21.1909604715      0.1720946129      0.0000000000
0.1790055457     21770063.9231556505      0.0970000000      20.4913180627      0.1796600635      0.0000000000
0.1865932824     18034722.0747408904      0.0990000000      19.8866754671      0.1873819072      0.0000000000
0.1943186035     15024292.9369894713      0.1010000000      19.3604167361      0.1952516413      0.0000000000
0.2021733425     12581699.0447561946      0.1030000000      18.8994798042      0.2032613110      0.0000000000
0.2101498360     10587677.2846362684      0.1050000000      18.4934674874      0.2114034496      0.0000000000
0.2182408770      8950651.0800441038      0.1070000000      18.1340063678      0.2196710324      0.0000000000
0.2264396757      7599642.2504584938      0.1090000000      17.8142848652      0.2280574382      0.0000000000
0.2347398315      6479183.6016094694      0.1110000000      17.5287099249      0.2365564217      0.0000000000
0.2431033415      5548838.2648142204      0.1130000000      17.2735678394      0.2451293056      0.0000000000
0.2513708386      4785252.0958362762      0.1150000000      17.0486210710      0.2536126550      0.0000000000
0.2596135273      4148071.4739326313      0.1170000000      16.8473776642      0.2620793186      0.0000000000
0.2678541282      3611512.2273654826      0.1190000000      16.6659564222      0.2705525744      0.0000000000
0.2761010424      3156722.4209645628      0.1210000000      16.5015374449      0.2790410530      0.0000000000
0.2843583186      2769128.8616357478      0.1230000000      16.3518809672      0.2875489362      0.0000000000
0.2926280971      2437208.7081659320      0.1250000000      16.2151492888      0.2960784559      0.0000000000
0.3009115418      2151725.2993740919      0.1270000000      16.0898067241      0.3046308465      0.0000000000
0.3092092737      1905199.5537824950      0.1290000000      15.9745542482      0.3132067880      0.0000000000
0.3175216057      1691525.1003900042      0.1310000000      15.8682825030      0.3218066462      0.0000000000
0.3258486725      1505683.6414413003      0.1330000000      15.7700376150      0.3304306051      0.0000000000
0.3341905066      1343524.7344989036      0.1350000000      15.6789930184      0.3390787453      0.0000000000
0.3425470937      1201597.6315113017      0.1370000000      15.5944297521      0.3477511006      0.0000000000
0.3509184019      1077019.0047668684      0.1390000000      15.5157184472      0.3564476877      0.0000000000
0.3593044030       967368.6739253084      0.1410000000      15.4423060611      0.3651685288      0.0000000000
0.3677050891       870606.4895219700      0.1430000000      15.3737048067      0.3739136685      0.0000000000
0.3761204765       785006.1147202941      0.1450000000      15.3094824795      0.3826831782      0.0000000000
0.3845506170       709101.0142756983      0.1470000000      15.2492551351      0.3914771674      0.0000000000
0.3929955972       641641.2667593308      0.1490000000      15.1926804679      0.4002957837      0.0000000000
0.4014555413       581557.8962302480      0.1510000000      15.1394525190      0.4091392157      0.0000000000
0.4099306113       527933.6879656099      0.1530000000      15.0892967245      0.4180076934      0.0000000000
0.4184210068       479979.6176758129      0.1550000000      15.0419666256      0.4269014880      0.0000000000
0.4269269623       437014.6403955662      0.1570000000      14.9972398082      0.4358209092      0.0000000000
0.4354487462       398449.5485271010      0.1590000000      14.9549156530      0.4447663050      0.0000000000
0.4439866652       363773.0805848762      0.1610000000      14.9148124095      0.4537380655      0.0000000000
0.4525410345       332540.6637744961      0.1630000000      14.8767653380      0.4627365924      0.0000000000
0.4611122149       304364.6235863690      0.1650000000      14.8406246599      0.4717623380      0.0000000000
0.4697005832       278906.2615236522      0.1670000000      14.8062540596      0.4808157742      0.0000000000
0.4783065366       255868.8250993731      0.1690000000      14.7735290132      0.4898973969      0.0000000000
0.4869304885       234991.9641236736      0.1710000000      14.7423360558      0.4990077226      0.0000000000
0.4955728646       216046.6832490086      0.1730000000      14.7125711761      0.5081472830      0.0000000000
0.5042341016       198831.0726255371      0.1750000000      14.6841389476      0.5173166252      0.0000000000
0.5129146412       183166.9900206101      0.1770000000      14.6569520018      0.5265163042      0.0000000000
0.5216149306       168896.7248009478      0.1790000000      14.6309299056      0.5357468841      0.0000000000
0.5303354155       155880.5250501685      0.1810000000      14.6059985701      0.5450089308      0.0000000000
0.5390765374       143994.3759670246      0.1830000000      14.5820897505      0.5543030084      0.0000000000
0.5478387333       133127.9279037455      0.1850000000      14.5591405265      0.5636296798      0.0000000000
0.5566224454       123182.8735998747      0.1870000000      14.5370926042      0.5729895164      0.0000000000
0.5654280572       114071.5566751222      0.1890000000      14.5158921865      0.5823830302      0.0000000000
0.5742559836       105715.5711333557      0.1910000000      14.4954893356      0.5918107699      0.0000000000
0.5831066051        98044.7975883870      0.1930000000      14.4758378620      0.6012732504      0.0000000000
0.5919802816        90996.3448006335      0.1950000000      14.4568946613      0.6107709675      0.0000000000
0.6008773501        84513.7911013083      0.1970000000      14.4386199000      0.6203043954      0.0000000000
0.6097981208        78546.4069149315      0.1990000000      14.4209763023      0.6298739825      0.0000000000
0.6187428759        73048.5415957548      0.2010000000      14.4039292893      0.6394801498      0.0000000000
0.6277118677        67979.0365999546      0.2030000000      14.3874465792      0.6491232887      0.0000000000
0.6367053146        63300.7613810087      0.2050000000      14.3714979682      0.6588037570      0.0000000000
0.6457234012        58980.1614673432      0.2070000000      14.3560552695      0.6685218777      0.0000000000
0.6547662750        54986.8834067603      0.2090000000      14.3410921084      0.6782779367      0.0000000000
0.6638340463        51293.4302759340      0.2110000000      14.3265838197      0.6880721813      0.0000000000
0.6729267837        47874.8773793180      0.2130000000      14.3125071895      0.6979048161      0.0000000000
0.6820445159        44708.5917712249      0.2150000000      14.2988404797      0.7077760035      0.0000000000
0.6911872284        41774.0064695595      0.2170000000      14.2855632864      0.7176858612      0.0000000000
0.7003548632        39052.4101786367      0.2190000000      14.2726563643      0.7276344608      0.0000000000
0.7095473045        36526.7707628117      0.2210000000      14.2601016167      0.7376218119      0.0000000000
0.7187644284        34181.5433482400      0.2230000000      14.2478820336      0.7476479166      0.0000000000
0.7280060273        32002.5560680877      0.2250000000      14.2359814172      0.7577126861      0.0000000000
0.7372718587        29976.8674173601      0.2270000000      14.2243846520      0.7678159942      0.0000000000
0.7465616330        28092.6389437524      0.2290000000      14.2130773379      0.7779576634      0.0000000000
0.7558750125        26339.0411969528      0.2310000000      14.2020458851      0.7881374633      0.0000000000
0.7652116120        24706.1503245322      0.2330000000      14.1912773560      0.7983551114      0.0000000000
0.7745709972        23184.8788291984      0.2350000000      14.1807595489      0.8086102705      0.0000000000
0.7839526868        21766.8841756127      0.2370000000      14.1704808456      0.8189025512      0.0000000000
0.7933561516        20444.5063127442      0.2390000000      14.1604301955      0.8292315100      0.0000000000
0.8027808149        19210.7095742265      0.2410000000      14.1505970972      0.8395966498      0.0000000000
0.8122260533        18059.0224681482      0.2430000000      14.1409715682      0.8499974206      0.0000000000
0.8216911970        16983.4885103224      0.2450000000      14.1315439751      0.8604332187      0.0000000000
0.8311755312        15978.6252141887      0.2470000000      14.1223053127      0.8709033886      0.0000000000
0.8406782963        15039.3773982853      0.2490000000      14.1132468391      0.8814072226      0.0000000000
0.8501986886        14161.0855297307      0.2510000000      14.1043602140      0.8919439615      0.0000000000
0.8597358625        13339.4478015147      0.2530000000      14.0956375269      0.9025127961      0.0000000000
0.8692889309        12570.4924417761      0.2550000000      14.0870710855      0.9131128679      0.0000000000
0.8788569660        11850.5513338974      0.2570000000      14.0786536056      0.9237432694      0.0000000000
0.8884390022        11176.2308259135      0.2590000000      14.0703780822      0.9344030467      0.0000000000
0.8980340359        10544.3929933345      0.2610000000      14.0622377540      0.9450911995      0.0000000000
0.9076410277         9952.1335426326      0.2630000000      14.0542261406      0.9558066828      0.0000000000
0.9172589045         9396.7624775826      0.2650000000      14.0463370355      0.9665484093      0.0000000000
0.9268865604         8875.7856777359      0.2670000000      14.0385643780      0.9773152495      0.0000000000
0.9365228587         8386.8936479101      0.2690000000      14.0309024489      0.9881060343      0.0000000000
0.9461666338         7927.9423548766      0.2710000000      14.0233456814      0.9989195564      0.0000000000
0.9558166932         7496.9427463698      0.2730000000      14.0158886780      1.0097545723      0.0000000000
0.9654718180         7092.0477721406      0.2750000000      14.0085262846      1.0206098028      0.0000000000
0.9751307672         6711.5419144086      0.2770000000      14.0012535234      1.0314839375      0.0000000000
0.9847922776         6353.8302198790      0.2790000000      13.9940655133      1.0423756341      0.0000000000
0.9944550664         6017.4309723051      0.2810000000      13.9869576489      1.0532835219      0.0000000000
1.0041178336         5700.9653386397      0.2830000000      13.9799254270      1.0642062033      0.0000000000
1.0137792633         5403.1502648908      0.2850000000      13.9729644725      1.0751422557      0.0000000000
1.0234380260         5122.7913669440      0.2870000000      13.9660706218      1.0860902339      0.0000000000
1.0330927806         4858.7766409519      0.2890000000      13.9592397963      1.0970486718      0.0000000000
1.0427421761         4610.0694944756      0.2910000000      13.9524680574      1.1080160847      0.0000000000
1.0523848542         4375.7043590364      0.2930000000      13.9457516417      1.1189909714      0.0000000000
1.0620194498         4154.7811609962      0.2950000000      13.9390868602      1.1299718154      0.0000000000
1.0716445949         3946.4597471836      0.2970000000      13.9324701713      1.1409570888      0.0000000000
1.0812589186         3749.9569094642      0.2990000000      13.9258981404      1.1519452523      0.0000000000
1.0908610504         3564.5412484397      0.3010000000      13.9193674757      1.1629347588      0.0000000000
1.1004496210         3389.5299314877      0.3030000000      13.9128749771      1.1739240543      0.0000000000
1.1100232645         3224.2855033615      0.3050000000      13.9064175649      1.1849115805      0.0000000000
1.1195806199         3068.2121860696      0.3070000000      13.8999922068      1.1958957763      0.0000000000
1.1291203329         2920.7531796052      0.3090000000      13.8935960596      1.2068750799      0.0000000000
1.1386410577         2781.3878488553      0.3110000000      13.8872263321      1.2178479311      0.0000000000
1.1481414583         2649.6296852182      0.3130000000      13.8808803439      1.2288127721      0.0000000000
1.1576202098         2525.0234263414      0.3150000000      13.8745555231      1.2397680502      0.0000000000
1.1670760004         2407.1427954144      0.3170000000      13.8682493288      1.2507122188      0.0000000000
1.1765075324         2295.5891740834      0.3190000000      13.8619594160      1.2616437397      0.0000000000
1.1859135234         2189.9891303493      0.3210000000      13.8556834451      1.2725610841      0.0000000000
1.1952927079         2089.9929755055      0.3230000000      13.8494191921      1.2834627344      0.0000000000
1.2046438389         1995.2731669850      0.3250000000      13.8431645423      1.2943471864      0.0000000000
1.2139656868         1905.5226221588      0.3270000000      13.8369173845      1.3052129483      0.0000000000
1.2232570441         1820.4536814521      0.3290000000      13.8306758152      1.3160585455      0.0000000000
1.2325167232         1739.7964221119      0.3310000000      13.8244378731      1.3268825192      0.0000000000
1.2417435589         1663.2978892062      0.3330000000      13.8182017888      1.3376834289      0.0000000000
1.2509364090         1590.7206670938      0.3350000000      13.8119658137      1.3484598531      0.0000000000
1.2600941549         1521.8419688489      0.3370000000      13.8057282932      1.3592103905      0.0000000000
1.2692157023         1456.4526482660      0.3390000000      13.7994875988      1.3699336610      0.0000000000
1.2782999824         1394.3564280850      0.3410000000      13.7932422631      1.3806283069      0.0000000000
1.2873459517         1335.3688035645      0.3430000000      13.7869907826      1.3912929933      0.0000000000
1.2963525930         1279.3167313862      0.3450000000      13.7807318128      1.4019264095      0.0000000000
1.3053189163         1226.0372617342      0.3470000000      13.7744640341      1.4125272695      0.0000000000
1.3142439582         1175.3775165757      0.3490000000      13.7681861851      1.4230943124      0.0000000000
1.3231267832         1127.1935796923      0.3510000000      13.7618971122      1.4336263040      0.0000000000
1.3319664836         1081.3501447292      0.3530000000      13.7555956382      1.4441220361      0.0000000000
1.3407621796         1037.7200380052      0.3550000000      13.7492807571      1.4545803281      0.0000000000
1.3495130199          996.1834814576      0.3570000000      13.7429514027      1.4650000267      0.0000000000
1.3582181816          956.6278215990      0.3590000000      13.7366066714      1.4753800071      0.0000000000
1.3668768708          918.9468876648      0.3610000000      13.7302456729      1.4857191728      0.0000000000
1.3754883214          883.0408552942      0.3630000000      13.7238675517      1.4960164558      0.0000000000
1.3840517965          848.8156079204      0.3650000000      13.7174715236      1.5062708171      0.0000000000
1.3925665877          816.1824632184      0.3670000000      13.7110568466      1.5164812473      0.0000000000
1.4010320155          785.0578616315      0.3690000000      13.7046228617      1.5266467662      0.0000000000
1.4094474281          755.3631255511      0.3710000000      13.6981689095      1.5367664226      0.0000000000
1.4178122028          727.0238428112      0.3730000000      13.6916943990      1.5468392955      0.0000000000
1.4261257445          699.9700797604      0.3750000000      13.6851988011      1.5568644931      0.0000000000
1.4343874863          674.1357139044      0.3770000000      13.6786816169      1.5668411533      0.0000000000
1.4425968887          649.4583720110      0.3790000000      13.6721423584      1.5767684433      0.0000000000
1.4507534398          625.8792338964      0.3810000000      13.6655806381      1.5866455597      0.0000000000
1.4588566548          603.3427195783      0.3830000000      13.6589960644      1.5964717286      0.0000000000
1.4669060756          581.7963559072      0.3850000000      13.6523883120      1.6062462050      0.0000000000
1.4749012709          561.1904961529      0.3870000000      13.6457570560      1.6159682735      0.0000000000
1.4828418346          541.4783803444      0.3890000000      13.6391020408      1.6256372459      0.0000000000
1.4907273870          522.6157132144      0.3910000000      13.6324230367      1.6352524637      0.0000000000
1.4985575736          504.5605979570      0.3930000000      13.6257198500      1.6448132965      0.0000000000
1.5063320645          487.2734987893      0.3950000000      13.6189922888      1.6543191414      0.0000000000
1.5140505545          470.7169567054      0.3970000000      13.6122402493      1.6637694234      0.0000000000
1.5217127621          454.8555497533      0.3990000000      13.6054635936      1.6731635944      0.0000000000
1.5293184293          439.6557782884      0.4010000000      13.5986622546      1.6825011334      0.0000000000
1.5368673215          425.0858886157      0.4030000000      13.5918361910      1.6917815459      0.0000000000
1.5443592260          411.1158488042      0.4050000000      13.5849853575      1.7010043635      0.0000000000
1.5517939529          397.7171901724      0.4070000000      13.5781097578      1.7101691435      0.0000000000
1.5591713333          384.8629704987      0.4090000000      13.5712094115      1.7192754684      0.0000000000
1.5664912195          372.5276336502      0.4110000000      13.5642843773      1.7283229458      0.0000000000
1.5737534845          360.6869794048      0.4130000000      13.5573347100      1.7373112072      0.0000000000
1.5809580212          349.3180365462      0.4150000000      13.5503604934      1.7462399088      0.0000000000
1.5881047421          338.3990352627      0.4170000000      13.5433618507      1.7551087299      0.0000000000
1.5951935787          327.9093439405      0.4190000000      13.5363388944      1.7639173726      0.0000000000
1.6022244810          317.8293437668      0.4210000000      13.5292917820      1.7726655622      0.0000000000
1.6091974170          308.1404644197      0.4230000000      13.5222206520      1.7813530455      0.0000000000
1.6161123728          298.8250382529      0.4250000000      13.5151256924      1.7899795921      0.0000000000
1.6229693498          289.8663109553      0.4270000000      13.5080071033      1.7985449901      0.0000000000
1.6297683673          281.2483594179      0.4290000000      13.5008650834      1.8070490508      0.0000000000
1.6365094605          272.9560522311      0.4310000000      13.4936998560      1.8154916048      0.0000000000
1.6431926797          264.9750369036      0.4330000000      13.4865116545      1.8238725023      0.0000000000
1.6498180902          257.2916267905      0.4350000000      13.4793007209      1.8321916130      0.0000000000
1.6563857721          249.8928540178      0.4370000000      13.4720673139      1.8404488249      0.0000000000
1.6628958192          242.7663594921      0.4390000000      13.4648117049      1.8486440444      0.0000000000
1.6693483389          235.9003928918      0.4410000000      13.4575341686      1.8567771957      0.0000000000
1.6757434518          229.2837744318      0.4430000000      13.4502349906      1.8648482203      0.0000000000
1.6820812909          222.9058703191      0.4450000000      13.4429144726      1.8728570762      0.0000000000
1.6883620017          216.7565514275      0.4470000000      13.4355729086      1.8808037379      0.0000000000
