# M(M_sol)                 Lambda          n_Bc(fm^-3)         R(km)            m_B(M_sol)        m_Bquar/M_B
0.1543397054     15711747.3793356437      0.1550000000      18.2273010997      0.1545598913      0.0000000000
0.1596586250     13158964.9277912900      0.1570000000      17.6650438127      0.1599556142      0.0000000000
0.1652433962     11029306.7541853879      0.1590000000      17.1563162421      0.1656260622      0.0000000000
0.1710978310      9251891.2205635961      0.1610000000      16.6956229751      0.1715758062      0.0000000000
0.1772255231      7767839.1033081012      0.1630000000      16.2781089044      0.1778092387      0.0000000000
0.1836296963      6528157.0334505513      0.1650000000      15.8994645243      0.1843304178      0.0000000000
0.1903134602      5492067.1740151783      0.1670000000      15.5558795868      0.1911433284      0.0000000000
0.1972796076      4625605.7430951530      0.1690000000      15.2439598840      0.1982516754      0.0000000000
0.2045306816      3900505.1753114942      0.1710000000      14.9606935666      0.2056589515      0.0000000000
0.2120688520      3293225.9529534932      0.1730000000      14.7033837475      0.2133683097      0.0000000000
0.2198961319      2784184.2157995603      0.1750000000      14.4696340244      0.2213827850      0.0000000000
0.2280141448      2357081.0536779161      0.1770000000      14.2572930382      0.2297050537      0.0000000000
0.2364242429      1998358.7713727904      0.1790000000      14.0644368443      0.2383375547      0.0000000000
0.2451274284      1696736.6682034957      0.1810000000      13.8893355351      0.2472824061      0.0000000000
0.2541243925      1442829.1500821840      0.1830000000      13.7304349327      0.2565414442      0.0000000000
0.2634154477      1228824.5523869197      0.1850000000      13.5863313669      0.2661161517      0.0000000000
0.2730005958      1048220.6601412222      0.1870000000      13.4557612015      0.2760077256      0.0000000000
0.2828795007       895601.6227471804      0.1890000000      13.3375830932      0.2862170474      0.0000000000
0.2930514099       766453.4325100506      0.1910000000      13.2307586742      0.2967445984      0.0000000000
0.3035152596       657012.6206279957      0.1930000000      13.1343503721      0.3075905667      0.0000000000
0.3142695928       564137.7342236405      0.1950000000      13.0475035654      0.3187547593      0.0000000000
0.3253125845       485205.2753530302      0.1970000000      12.9694408773      0.3302366242      0.0000000000
0.3366420626       418021.8780049551      0.1990000000      12.8994550280      0.3420352701      0.0000000000
0.3482554747       360751.9822884026      0.2010000000      12.8368993126      0.3541494275      0.0000000000
0.3601499006       311857.8655634138      0.2030000000      12.7811820766      0.3665774587      0.0000000000
0.3723220633       270050.0550630108      0.2050000000      12.7317620762      0.3793173650      0.0000000000
0.3847683286       234245.7831761951      0.2070000000      12.6881427033      0.3923667828      0.0000000000
0.3974847115       203534.9361264036      0.2090000000      12.6498680727      0.4057229864      0.0000000000
0.4104668837       177151.4896500841      0.2110000000      12.6165189324      0.4193828911      0.0000000000
0.4237101819       154449.9475696624      0.2130000000      12.5877093357      0.4333430588      0.0000000000
0.4372096198       134885.6309668889      0.2150000000      12.5630836974      0.4475997054      0.0000000000
0.4509599100       117998.3568522682      0.2170000000      12.5423149740      0.4621487207      0.0000000000
0.4649554357       103398.7959241388      0.2190000000      12.5250990469      0.4769856333      0.0000000000
0.4791903001        90757.1158727328      0.2210000000      12.5111554095      0.4921056589      0.0000000000
0.4936583398        79793.5403895552      0.2230000000      12.5002253700      0.5075037106      0.0000000000
0.5083531056        70270.3731895247      0.2250000000      12.4920673251      0.5231743739      0.0000000000
0.5232679297        61985.4549692708      0.2270000000      12.4864597886      0.5391119743      0.0000000000
0.5383958889        54766.5496870165      0.2290000000      12.4831953594      0.5553105337      0.0000000000
0.5537298453        48466.7513761762      0.2310000000      12.4820816650      0.5717638101      0.0000000000
0.5692624736        42960.5666886742      0.2330000000      12.4829410841      0.5884653230      0.0000000000
0.5849862434        38140.6409141170      0.2350000000      12.4856066394      0.6054083303      0.0000000000
0.6008934728        33915.0187525733      0.2370000000      12.4899244507      0.6225858828      0.0000000000
0.6169763174        30204.8191607257      0.2390000000      12.4957502071      0.6399908081      0.0000000000
0.6332268236        26942.2790432506      0.2410000000      12.5029515819      0.6576157661      0.0000000000
0.6496368956        24069.1077415494      0.2430000000      12.5114026259      0.6754532083      0.0000000000
0.6661983284        21535.0933403253      0.2450000000      12.5209865322      0.6934954124      0.0000000000
0.6829028748        19296.9226554936      0.2470000000      12.5315963444      0.7117345512      0.0000000000
0.6997421858        17317.1778065823      0.2490000000      12.5431296908      0.7301626257      0.0000000000
0.7167078890        15563.4976002712      0.2510000000      12.5554933327      0.7487715480      0.0000000000
0.7337915630        14007.8471221422      0.2530000000      12.5685987507      0.7675531111      0.0000000000
0.7509847847        12625.9107739929      0.2550000000      12.5823647942      0.7864990396      0.0000000000
0.7682791210        11396.5687708805      0.2570000000      12.5967148731      0.8056009779      0.0000000000
0.7856661390        10301.4541010413      0.2590000000      12.6115763550      0.8248505000      0.0000000000
0.8031374716         9324.5693847633      0.2610000000      12.6268847368      0.8442391820      0.0000000000
0.8206847572         8451.9657437370      0.2630000000      12.6425765883      0.8637585324      0.0000000000
0.8382997224         7671.4613214613      0.2650000000      12.6585955786      0.8834000847      0.0000000000
0.8559741319         6972.4063238857      0.2670000000      12.6748864491      0.9031553403      0.0000000000
0.8736998576         6345.4764026494      0.2690000000      12.6913999297      0.9230158451      0.0000000000
0.8914688588         5782.4975834375      0.2710000000      12.7080897023      0.9429731679      0.0000000000
0.9092731826         5276.2954731844      0.2730000000      12.7249110565      0.9630189000      0.0000000000
0.9271050199         4820.5645427338      0.2750000000      12.7418250797      0.9831447194      0.0000000000
0.9449566625         4409.7563814198      0.2770000000      12.7587934470      1.0033423418      0.0000000000
0.9628205592         4038.9816302319      0.2790000000      12.7757826892      1.0236035860      0.0000000000
0.9806892668         3703.9285984842      0.2810000000      12.7927586686      1.0439203177      0.0000000000
0.9985555349         3400.7873410752      0.2830000000      12.8096936706      1.0642845483      0.0000000000
1.0164122308         3126.1900857810      0.2850000000      12.8265584436      1.0846883492      0.0000000000
1.0342524035         2877.1544472957      0.2870000000      12.8433276054      1.1051239271      0.0000000000
1.0520692844         2651.0362029666      0.2890000000      12.8599790644      1.1255836265      0.0000000000
1.0698562438         2445.4898552060      0.2910000000      12.8764891024      1.1460598800      0.0000000000
1.0876068714         2258.4300445300      0.2930000000      12.8928397770      1.1665453044      0.0000000000
1.1053149010         2088.0029436898      0.2950000000      12.9090109403      1.1870326144      0.0000000000
1.1229742797         1932.5568662282      0.2970000000      12.9249867870      1.2075147052      0.0000000000
1.1405791336         1790.6192375397      0.2990000000      12.9407519451      1.2279846149      0.0000000000
1.1581237770         1660.8760635047      0.3010000000      12.9562922178      1.2484355368      0.0000000000
1.1756027220         1542.1527158088      0.3030000000      12.9715951804      1.2688608335      0.0000000000
1.1930106706         1433.3987428750      0.3050000000      12.9866493174      1.2892540298      0.0000000000
1.2103425167         1333.6734203903      0.3070000000      13.0014439658      1.3096088167      0.0000000000
1.2275933517         1242.1333334468      0.3090000000      13.0159698451      1.3299190613      0.0000000000
1.2447584628         1158.0214999827      0.3110000000      13.0302188829      1.3501788073      0.0000000000
1.2618333282         1080.6579225803      0.3130000000      13.0441836496      1.3703822711      0.0000000000
1.2788136173         1009.4311833791      0.3150000000      13.0578574206      1.3905238450      0.0000000000
1.2956951908          943.7907172137      0.3170000000      13.0712344779      1.4105980999      0.0000000000
1.3124741027          883.2403982523      0.3190000000      13.0843101231      1.4305997904      0.0000000000
1.3291465878          827.3327998934      0.3210000000      13.0970796888      1.4505238420      0.0000000000
1.3457090752          775.6636588019      0.3230000000      13.1095401937      1.4703653702      0.0000000000
1.3621581664          727.8679414733      0.3250000000      13.1216881788      1.4901196566      0.0000000000
1.3784906505          683.6151064080      0.3270000000      13.1335216399      1.5097821700      0.0000000000
1.3947034891          642.6059398226      0.3290000000      13.1450386031      1.5293485503      0.0000000000
1.4107938190          604.5692401042      0.3310000000      13.1562378016      1.5488146145      0.0000000000
1.4267589477          569.2588775886      0.3330000000      13.1671185125      1.5681763540      0.0000000000
1.4425963468          536.4514091121      0.3350000000      13.1776801348      1.5874299285      0.0000000000
1.4583036548          505.9436513580      0.3370000000      13.1879229020      1.6065716721      0.0000000000
1.4738786667          477.5508155240      0.3390000000      13.1978471390      1.6255980831      0.0000000000
1.4893193339          451.1046138534      0.3410000000      13.2074536160      1.6445058256      0.0000000000
1.5046237596          426.4516566683      0.3430000000      13.2167434970      1.6632917273      0.0000000000
1.5197901925          403.4520497366      0.3450000000      13.2257179913      1.6819527725      0.0000000000
1.5348170279          381.9780471231      0.3470000000      13.2343789943      1.7004861066      0.0000000000
1.5497027960          361.9129322147      0.3490000000      13.2427281284      1.7188890236      0.0000000000
1.5644461676          343.1499520138      0.3510000000      13.2507679525      1.7371589753      0.0000000000
1.5790459385          325.5914173814      0.3530000000      13.2585004838      1.7552935533      0.0000000000
1.5935010361          309.1478102197      0.3550000000      13.2659285720      1.7732904997      0.0000000000
1.6078105070          293.7371069187      0.3570000000      13.2730548353      1.7911476938      0.0000000000
1.6219735179          279.2840163532      0.3590000000      13.2798822778      1.8088631541      0.0000000000
1.6359893490          265.7194070485      0.3610000000      13.2864139454      1.8264350327      0.0000000000
1.6498573909          252.9797669646      0.3630000000      13.2926530539      1.8438616125      0.0000000000
1.6635771404          241.0066696176      0.3650000000      13.2986029895      1.8611413039      0.0000000000
1.6771481953          229.7463446152      0.3670000000      13.3042670959      1.8782726395      0.0000000000
1.6905702531          219.1492742152      0.3690000000      13.3096490155      1.8952542744      0.0000000000
1.7038431047          209.1698131058      0.3710000000      13.3147524004      1.9120849790      0.0000000000
1.7169666302          199.7658346145      0.3730000000      13.3195808232      1.9287636358      0.0000000000
1.7299407984          190.8984960452      0.3750000000      13.3241381914      1.9452892392      0.0000000000
1.7427656595          182.5318834961      0.3770000000      13.3284283200      1.9616608886      0.0000000000
1.7554413431          174.6328063753      0.3790000000      13.3324550656      1.9778777857      0.0000000000
1.7679680545          167.1705636881      0.3810000000      13.3362223386      1.9939392322      0.0000000000
1.7803460712          160.1167335424      0.3830000000      13.3397341269      2.0098446255      0.0000000000
1.7925757397          153.4449950463      0.3850000000      13.3429944174      2.0255934559      0.0000000000
1.8046574718          147.1309374313      0.3870000000      13.3460072341      2.0411853028      0.0000000000
1.8165917406          141.1519289953      0.3890000000      13.3487764772      2.0566198307      0.0000000000
1.8283790803          135.4869603920      0.3910000000      13.3513063217      2.0718967891      0.0000000000
1.8400200793          130.1165203986      0.3930000000      13.3536006967      2.0870160052      0.0000000000
1.8515153805          125.0224720047      0.3950000000      13.3556637420      2.1019773848      0.0000000000
1.8628656749          120.1879505404      0.3970000000      13.3574992758      2.1167809044      0.0000000000
1.8740717037          115.5972652448      0.3990000000      13.3591114974      2.1314266148      0.0000000000
1.8851342508          111.2358037276      0.4010000000      13.3605043262      2.1459146322      0.0000000000
1.8960541429          107.0899537730      0.4030000000      13.3616817349      2.1602451385      0.0000000000
1.9068322462          103.1470229970      0.4050000000      13.3626476811      2.1744183776      0.0000000000
1.9174694644           99.3951721116      0.4070000000      13.3634061503      2.1884346535      0.0000000000
1.9279667349           95.8233549227      0.4090000000      13.3639609304      2.2022943257      0.0000000000
1.9383250287           92.4212521715      0.4110000000      13.3643159961      2.2159978096      0.0000000000
1.9485453464           89.1792255076      0.4130000000      13.3644750898      2.2295455708      0.0000000000
1.9586287176           86.0882505243      0.4150000000      13.3644421105      2.2429381262      0.0000000000
1.9685761972           83.1399038942      0.4170000000      13.3642207855      2.2561760380      0.0000000000
1.9783888647           80.3262904667      0.4190000000      13.3638148388      2.2692599135      0.0000000000
1.9880678219           77.6400160072      0.4210000000      13.3632279828      2.2821904032      0.0000000000
1.9976141913           75.0741577524      0.4230000000      13.3624638922      2.2949681973      0.0000000000
2.0070291138           72.6222188016      0.4250000000      13.3615261275      2.3075940240      0.0000000000
2.0163137468           70.2781125066      0.4270000000      13.3604181534      2.3200686469      0.0000000000
2.0254692653           68.0361192732      0.4290000000      13.3591436839      2.3323928664      0.0000000000
2.0344968564           65.8908740854      0.4310000000      13.3577060872      2.3445675128      0.0000000000
2.0433977205           63.8373336022      0.4330000000      13.3561088385      2.3565934476      0.0000000000
2.0521730690           61.8707601446      0.4350000000      13.3543552667      2.3684715609      0.0000000000
2.0608241229           59.9866952375      0.4370000000      13.3524486989      2.3802027695      0.0000000000
2.0693521126           58.1809451829      0.4390000000      13.3503925293      2.3917880164      0.0000000000
2.0777582744           56.4495669776      0.4410000000      13.3481898369      2.4032282664      0.0000000000
2.0860438524           54.7888394410      0.4430000000      13.3458439578      2.4145245086      0.0000000000
2.0942100942           53.1952631288      0.4450000000      13.3433579138      2.4256777505      0.0000000000
2.1022582530           51.6655348484      0.4470000000      13.3407349310      2.4366890211      0.0000000000
2.1101895831           50.1965444389      0.4490000000      13.3379778729      2.4475593644      0.0000000000
2.1180053431           48.7853504715      0.4510000000      13.3350899301      2.4582898438      0.0000000000
2.1257067909           47.4291830040      0.4530000000      13.3320739242      2.4688815355      0.0000000000
2.1332951854           46.1254239290      0.4550000000      13.3289327538      2.4793355304      0.0000000000
2.1407717854           44.8715982802      0.4570000000      13.3256693320      2.4896529325      0.0000000000
2.1481378479           43.6653679850      0.4590000000      13.3222864560      2.4998348573      0.0000000000
2.1553946280           42.5045236269      0.4610000000      13.3187868344      2.5098824304      0.0000000000
2.1625433788           41.3869714041      0.4630000000      13.3151732949      2.5197967876      0.0000000000
2.1695853481           40.3107351617      0.4650000000      13.3114482690      2.5295790710      0.0000000000
2.1765217818           39.2739410539      0.4670000000      13.3076144958      2.5392304325      0.0000000000
2.1833539214           38.2748089415      0.4690000000      13.3036746787      2.5487520310      0.0000000000
2.1900830011           37.3116633381      0.4710000000      13.2996311122      2.5581450279      0.0000000000
2.1967102518           36.3829076358      0.4730000000      13.2954864015      2.5674105924      0.0000000000
2.2032368974           35.4870305988      0.4750000000      13.2912429814      2.5765498966      0.0000000000
2.2096641546           34.6225987663      0.4770000000      13.2869030945      2.5855641147      0.0000000000
2.2159932354           33.7882476534      0.4790000000      13.2824693251      2.5944544269      0.0000000000
2.2222253419           32.9826890535      0.4810000000      13.2779438272      2.6032220108      0.0000000000
2.2283616695           32.2046952474      0.4830000000      13.2733287857      2.6118680473      0.0000000000
2.2344034062           31.4530992967      0.4850000000      13.2686264873      2.6203937178      0.0000000000
2.2403517316           30.7267926493      0.4870000000      13.2638392252      2.6288002045      0.0000000000
2.2462078157           30.0247219096      0.4890000000      13.2589689872      2.6370886866      0.0000000000
2.2519728199           29.3458857947      0.4910000000      13.2540178669      2.6452603429      0.0000000000
2.2576478964           28.6893315816      0.4930000000      13.2489878112      2.6533163502      0.0000000000
2.2632341895           28.0541479202      0.4950000000      13.2438811117      2.6612578854      0.0000000000
2.2687328319           27.4394735994      0.4970000000      13.2386995461      2.6690861193      0.0000000000
2.2741449471           26.8444857951      0.4990000000      13.2334450497      2.6768022207      0.0000000000
2.2794716495           26.2683970757      0.5010000000      13.2281196083      2.6844073558      0.0000000000
2.2847140421           25.7104629605      0.5030000000      13.2227249851      2.6919026849      0.0000000000
2.2898732186           25.1699698962      0.5050000000      13.2172630855      2.6992893654      0.0000000000
2.2949502615           24.6462372223      0.5070000000      13.2117356107      2.7065685487      0.0000000000
2.2999462433           24.1386174257      0.5090000000      13.2061443009      2.7137413817      0.0000000000
2.3048622258           23.6464906890      0.5110000000      13.2004909331      2.7208090058      0.0000000000
2.3096992605           23.1692663009      0.5130000000      13.1947771833      2.7277725572      0.0000000000
