# M(M_sol)                 Lambda          n_Bc(fm^-3)         R(km)            m_B(M_sol)        m_Bquar/M_B
0.1526528441     42985866.4171864465      0.0960000000      23.2821263852      0.1528809010      0.0000000000
0.1580452641     36248031.5515194088      0.0980000000      22.4371461764      0.1583471319      0.0000000000
0.1635216239     30739550.8983117342      0.1000000000      21.6987659830      0.1639026300      0.0000000000
0.1690787030     26198402.2330463417      0.1020000000      21.0488610901      0.1695442936      0.0000000000
0.1747138887     22427958.0999912769      0.1040000000      20.4731138184      0.1752696331      0.0000000000
0.1804251104     19277931.9673182741      0.1060000000      19.9600762172      0.1810767059      0.0000000000
0.1862107800     16631691.0427410584      0.1080000000      19.5004932124      0.1869640572      0.0000000000
0.1920697492     14397580.8132739011      0.1100000000      19.0868053039      0.1929306789      0.0000000000
0.1980012673     12502863.3497741893      0.1120000000      18.7127847940      0.1989759673      0.0000000000
0.2039468036     10903609.0535381306      0.1140000000      18.3763706195      0.2050403605      0.0000000000
0.2098541977      9557064.8148024697      0.1160000000      18.0748108964      0.2110706156      0.0000000000
0.2157721042      8407162.4910847917      0.1180000000      17.8009003811      0.2171163565      0.0000000000
0.2217144209      7418361.1115938760      0.1200000000      17.5505163913      0.2231918158      0.0000000000
0.2276891794      6563593.2635915643      0.1220000000      17.3205303860      0.2293052672      0.0000000000
0.2337022938      5821402.8927782513      0.1240000000      17.1084211994      0.2354628420      0.0000000000
0.2397586901      5174454.3791217394      0.1260000000      16.9121029501      0.2416696794      0.0000000000
0.2458627749      4608561.1527277278      0.1280000000      16.7298222469      0.2479304028      0.0000000000
0.2520186581      4112011.3467245647      0.1300000000      16.5600899885      0.2542493472      0.0000000000
0.2582302747      3675057.1107302397      0.1320000000      16.4016296341      0.2606306828      0.0000000000
0.2645014546      3289534.2446150165      0.1340000000      16.2533399513      0.2670784869      0.0000000000
0.2708359604      2948566.5958012734      0.1360000000      16.1142647958      0.2735967822      0.0000000000
0.2772375124      2646333.1592877307      0.1380000000      15.9835706742      0.2801895631      0.0000000000
0.2837098017      2377881.3772251396      0.1400000000      15.8605262789      0.2868608083      0.0000000000
0.2902564972      2138982.3111586124      0.1420000000      15.7444888713      0.2936144895      0.0000000000
0.2968812489      1926007.9653972920      0.1440000000      15.6348902631      0.3004545745      0.0000000000
0.3035876862      1735835.9392641445      0.1460000000      15.5312268764      0.3073850253      0.0000000000
0.3103794172      1565768.3891342282      0.1480000000      15.4330506964      0.3144097985      0.0000000000
0.3172600260      1413468.0040662400      0.1500000000      15.3399625065      0.3215328424      0.0000000000
0.3242330643      1276902.5851014692      0.1520000000      15.2516050196      0.3287580886      0.0000000000
0.3313020490      1154300.3880956303      0.1540000000      15.1676577160      0.3360894500      0.0000000000
0.3384704618      1044112.2692895430      0.1560000000      15.0878322081      0.3435308205      0.0000000000
0.3457417135       944980.7470756312      0.1580000000      15.0118689452      0.3510860385      0.0000000000
0.3531191802       855712.5845964622      0.1600000000      14.9395329278      0.3587589245      0.0000000000
0.3606061669       775256.9695020303      0.1620000000      14.8706114410      0.3665532435      0.0000000000
0.3682059079       702686.0570923551      0.1640000000      14.8049110394      0.3744727058      0.0000000000
0.3759215561       637179.2829740274      0.1660000000      14.7422559302      0.3825209561      0.0000000000
0.3837561779       578009.1651348227      0.1680000000      14.6824853528      0.3907015679      0.0000000000
0.3917127447       524529.7530777691      0.1700000000      14.6254526589      0.3990180352      0.0000000000
0.3997941214       476166.2844332856      0.1720000000      14.5710229592      0.4074737599      0.0000000000
0.4080030624       432406.5179311858      0.1740000000      14.5190722869      0.4160720483      0.0000000000
0.4163422011       392793.3211225304      0.1760000000      14.4694864961      0.4248160998      0.0000000000
0.4248140423       356917.9770335001      0.1780000000      14.4221599071      0.4337089986      0.0000000000
0.4334209490       324414.6965007366      0.1800000000      14.3769947380      0.4427536996      0.0000000000
0.4421651569       294955.5339795455      0.1820000000      14.3338998047      0.4519530435      0.0000000000
0.4510487326       268246.2394456249      0.1840000000      14.2927902821      0.4613097133      0.0000000000
0.4600735893       244022.4724800557      0.1860000000      14.2535868134      0.4708262486      0.0000000000
0.4692414745       222046.4026648213      0.1880000000      14.2162148136      0.4805050340      0.0000000000
0.4785539635       202104.0489573529      0.1900000000      14.1806044333      0.4903482907      0.0000000000
0.4880124516       184002.5025008737      0.1920000000      14.1466893474      0.5003580675      0.0000000000
0.4976181498       167567.8923904788      0.1940000000      14.1144070407      0.5105362361      0.0000000000
0.5073720792       152643.2580227844      0.1960000000      14.0836980785      0.5208844841      0.0000000000
0.5172750651       139086.8833925540      0.1980000000      14.0545057915      0.5314043076      0.0000000000
0.5273277343       126770.7020525438      0.2000000000      14.0267761650      0.5420970079      0.0000000000
0.5375305096       115578.9352985524      0.2020000000      14.0004573699      0.5529636839      0.0000000000
0.5478836063       105406.8731617278      0.2040000000      13.9754996509      0.5640052275      0.0000000000
0.5583870310        96159.7345789253      0.2060000000      13.9518550529      0.5752223214      0.0000000000
0.5690405779        87751.7392715937      0.2080000000      13.9294773827      0.5866154333      0.0000000000
0.5798438285        80105.1905292052      0.2100000000      13.9083219135      0.5981848145      0.0000000000
0.5907961507        73149.7004806537      0.2120000000      13.8883453253      0.6099304973      0.0000000000
0.6018966962        66821.4986870231      0.2140000000      13.8695054509      0.6218522906      0.0000000000
0.6131444035        61062.7822107596      0.2160000000      13.8517613974      0.6339497817      0.0000000000
0.6245379970        55821.1518418333      0.2180000000      13.8350732413      0.6462223335      0.0000000000
0.6360759915        51049.0872183042      0.2200000000      13.8194021123      0.6586690876      0.0000000000
0.6477566898        46703.5063385392      0.2220000000      13.8047099868      0.6712889595      0.0000000000
0.6595781893        42745.3292673394      0.2240000000      13.7909597436      0.6840806447      0.0000000000
0.6715383845        39139.1053990218      0.2260000000      13.7781151172      0.6970426190      0.0000000000
0.6836349700        35852.6712251858      0.2280000000      13.7661404918      0.7101731393      0.0000000000
0.6958654461        32856.8532689542      0.2300000000      13.7550011706      0.7234702489      0.0000000000
0.7082271232        30125.1712484730      0.2320000000      13.7446629467      0.7369317789      0.0000000000
0.7207171285        27633.6004894136      0.2340000000      13.7350925695      0.7505553548      0.0000000000
0.7333324110        25360.3351127031      0.2360000000      13.7262572761      0.7643383985      0.0000000000
0.7460697487        23285.5864597377      0.2380000000      13.7181250883      0.7782781355      0.0000000000
0.7589257553        21391.3912350024      0.2400000000      13.7106646468      0.7923715994      0.0000000000
0.7718968876        19661.4427962953      0.2420000000      13.7038452379      0.8066156382      0.0000000000
0.7849794537        18080.9381114993      0.2440000000      13.6976368207      0.8210069212      0.0000000000
0.7981696207        16636.4377980931      0.2460000000      13.6920100274      0.8355419456      0.0000000000
0.8114634230        15315.7384398216      0.2480000000      13.6869361334      0.8502170438      0.0000000000
0.8248567715        14107.7567821603      0.2500000000      13.6823870221      0.8650283915      0.0000000000
0.8383454612        13002.4286828854      0.2520000000      13.6783352636      0.8799720144      0.0000000000
0.8519251818        11990.6136915897      0.2540000000      13.6747541554      0.8950437980      0.0000000000
0.8655915256        11064.0062074005      0.2560000000      13.6716175795      0.9102394950      0.0000000000
0.8793399972        10215.0621075742      0.2580000000      13.6689000810      0.9255547338      0.0000000000
0.8931660230         9436.9254218402      0.2600000000      13.6665769206      0.9409850283      0.0000000000
0.9070649604         8723.3640184332      0.2620000000      13.6646239679      0.9565257862      0.0000000000
0.9210321065         8068.7152880730      0.2640000000      13.6630178389      0.9721723173      0.0000000000
0.9350627084         7467.8297001777      0.2660000000      13.6617357563      0.9879198439      0.0000000000
0.9491519712         6916.0244840643      0.2680000000      13.6607556377      1.0037635085      0.0000000000
0.9632950683         6409.0414091452      0.2700000000      13.6600560969      1.0196983845      0.0000000000
0.9774871496         5943.0057944211      0.2720000000      13.6596163472      1.0357194836      0.0000000000
0.9917233505         5514.3921872050      0.2740000000      13.6594163642      1.0518217663      0.0000000000
1.0059988001         5119.9921133182      0.2760000000      13.6594367366      1.0680001492      0.0000000000
1.0203086303         4756.8843111175      0.2780000000      13.6596587167      1.0842495152      0.0000000000
1.0346479828         4422.4087890279      0.2800000000      13.6600641953      1.1005647207      0.0000000000
1.0490120184         4114.1423482239      0.2820000000      13.6606357821      1.1169406058      0.0000000000
1.0633959236         3829.8769058475      0.2840000000      13.6613566436      1.1333720011      0.0000000000
1.0777949179         3567.6002235801      0.2860000000      13.6622106737      1.1498537363      0.0000000000
1.0922042614         3325.4773749646      0.2880000000      13.6631823287      1.1663806479      0.0000000000
1.1066192608         3101.8352792123      0.2900000000      13.6642567203      1.1829475868      0.0000000000
1.1210352760         2895.1471761385      0.2920000000      13.6654195620      1.1995494253      0.0000000000
1.1354477264         2704.0196778461      0.2940000000      13.6666571749      1.2161810651      0.0000000000
1.1498520966         2527.1805602987      0.2960000000      13.6679564943      1.2328374433      0.0000000000
1.1642439403         2363.4681365040      0.2980000000      13.6693049723      1.2495135377      0.0000000000
1.1786188878         2211.8207613229      0.3000000000      13.6706907089      1.2662043757      0.0000000000
1.1929726482         2071.2682035865      0.3020000000      13.6721023100      1.2829050377      0.0000000000
1.2073010150         1940.9233124794      0.3040000000      13.6735289428      1.2996106636      0.0000000000
1.2215998700         1819.9744715507      0.3060000000      13.6749602850      1.3163164580      0.0000000000
1.2358651863         1707.6789857281      0.3080000000      13.6763865911      1.3330176952      0.0000000000
1.2500930340         1603.3568887553      0.3100000000      13.6777985796      1.3497097255      0.0000000000
1.2642795748         1506.3854962482      0.3120000000      13.6791874500      1.3663879706      0.0000000000
1.2784210769         1416.1941950392      0.3140000000      13.6805449368      1.3830479414      0.0000000000
1.2925139087         1332.2597860728      0.3160000000      13.6818631473      1.3996852321      0.0000000000
1.3065545434         1254.1027250838      0.3180000000      13.6831347298      1.4162955260      0.0000000000
1.3205395607         1181.2827112664      0.3200000000      13.6843527485      1.4328745992      0.0000000000
1.3344656470         1113.3958553590      0.3220000000      13.6855106449      1.4494183214      0.0000000000
1.3483295981         1050.0710721523      0.3240000000      13.6866023320      1.4659226604      0.0000000000
1.3621283189          990.9674513122      0.3260000000      13.6876220608      1.4823836831      0.0000000000
1.3758588242          935.7716770982      0.3280000000      13.6885645005      1.4987975574      0.0000000000
1.3895182392          884.1955816769      0.3300000000      13.6894246981      1.5151605541      0.0000000000
1.4031037995          835.9740491863      0.3320000000      13.6901980187      1.5314690481      0.0000000000
1.4166128508          790.8629807995      0.3340000000      13.6908801783      1.5477195193      0.0000000000
1.4300428486          748.6376616858      0.3360000000      13.6914672456      1.5639085539      0.0000000000
1.4433913577          709.0909886012      0.3380000000      13.6919555841      1.5800328443      0.0000000000
1.4566560516          672.0320504309      0.3400000000      13.6923418628      1.5960891901      0.0000000000
1.4698347113          637.2847712094      0.3420000000      13.6926230423      1.6120744982      0.0000000000
1.4829252242          604.6867041603      0.3440000000      13.6927963582      1.6279857823      0.0000000000
1.4959255836          574.0878081283      0.3460000000      13.6928593100      1.6438201637      0.0000000000
1.5088338857          545.3496225584      0.3480000000      13.6928096398      1.6595748691      0.0000000000
1.5216483303          518.3440548984      0.3500000000      13.6926453736      1.6752472326      0.0000000000
1.5343672173          492.9527878308      0.3520000000      13.6923647067      1.6908346927      0.0000000000
1.5469889463          469.0663080148      0.3540000000      13.6919661212      1.7063347930      0.0000000000
1.5595120138          446.5833168742      0.3560000000      13.6914482458      1.7217451799      0.0000000000
1.5719350120          425.4099585876      0.3580000000      13.6908099605      1.7370636030      0.0000000000
1.5842566265          405.4593444393      0.3600000000      13.6900503032      1.7522879125      0.0000000000
1.5964756346          386.6509152234      0.3620000000      13.6891685022      1.7674160588      0.0000000000
1.6085909026          368.9099573072      0.3640000000      13.6881639477      1.7824460905      0.0000000000
1.6206013843          352.1671870325      0.3660000000      13.6870362040      1.7973761533      0.0000000000
1.6325061187          336.3582572781      0.3680000000      13.6857849853      1.8122044882      0.0000000000
1.6443042273          321.4234487164      0.3700000000      13.6844101475      1.8269294297      0.0000000000
1.6559949125          307.3072598025      0.3720000000      13.6829116806      1.8415494042      0.0000000000
1.6675774551          293.9580741638      0.3740000000      13.6812897044      1.8560629287      0.0000000000
1.6790512101          281.3279270748      0.3760000000      13.6795444591      1.8704686060      0.0000000000
1.6904156115          269.3721644708      0.3780000000      13.6776763197      1.8847651315      0.0000000000
1.7016701598          258.0492066535      0.3800000000      13.6756857179      1.8989512789      0.0000000000
1.7128144263          247.3203733355      0.3820000000      13.6735732304      1.9130259066      0.0000000000
1.7238480496          237.1495732013      0.3840000000      13.6713395190      1.9269879537      0.0000000000
1.7347707329          227.5031752274      0.3860000000      13.6689853244      1.9408364376      0.0000000000
1.7455822418          218.3498221318      0.3880000000      13.6665114630      1.9545704522      0.0000000000
1.7562824025          209.6602412623      0.3900000000      13.6639188468      1.9681891664      0.0000000000
1.7668710990          201.4071076504      0.3920000000      13.6612084413      1.9816918210      0.0000000000
1.7773482713          193.5648955175      0.3940000000      13.6583812862      1.9950777277      0.0000000000
1.7877139132          186.1097641897      0.3960000000      13.6554384870      2.0083462665      0.0000000000
1.7979680705          179.0193995659      0.3980000000      13.6523811816      2.0214968839      0.0000000000
1.8081108381          172.2729653197      0.4000000000      13.6492105838      2.0345290907      0.0000000000
1.8181423587          165.8509361528      0.4020000000      13.6459279523      2.0474424602      0.0000000000
1.8280628209          159.7350430793      0.4040000000      13.6425345723      2.0602366264      0.0000000000
1.8378724564          153.9081789298      0.4060000000      13.6390317836      2.0729112814      0.0000000000
1.8475715390          148.3543083602      0.4080000000      13.6354209589      2.0854661741      0.0000000000
1.8571603822          143.0583924357      0.4100000000      13.6317034920      2.0979011083      0.0000000000
1.8666393376          138.0063453532      0.4120000000      13.6278808222      2.1102159400      0.0000000000
1.8760087930          133.1849314743      0.4140000000      13.6239544114      2.1224105767      0.0000000000
1.8852691705          128.5817413470      0.4160000000      13.6199257295      2.1344849746      0.0000000000
1.8944209252          124.1851132996      0.4180000000      13.6157962784      2.1464391374      0.0000000000
1.9034645432          119.9840952409      0.4200000000      13.6115675713      2.1582731141      0.0000000000
1.9124005405          115.9683828714      0.4220000000      13.6072411521      2.1699869979      0.0000000000
1.9212294606          112.1283030750      0.4240000000      13.6028185532      2.1815809238      0.0000000000
1.9299518736          108.4547421892      0.4260000000      13.5983013428      2.1930550672      0.0000000000
1.9385683748          104.9391348908      0.4280000000      13.5936910644      2.2044096424      0.0000000000
1.9470795826          101.5734098889      0.4300000000      13.5889892952      2.2156449007      0.0000000000
1.9554861382           98.3499657656      0.4320000000      13.5841976061      2.2267611296      0.0000000000
1.9637887031           95.2616406530      0.4340000000      13.5793175731      2.2377586501      0.0000000000
1.9719879588           92.3016852447      0.4360000000      13.5743507710      2.2486378163      0.0000000000
1.9800846046           89.4637311189      0.4380000000      13.5692987785      2.2593990131      0.0000000000
1.9880793575           86.7417731088      0.4400000000      13.5641631601      2.2700426555      0.0000000000
1.9959729499           84.1301438692      0.4420000000      13.5589454836      2.2805691869      0.0000000000
2.0037661293           81.6234898826      0.4440000000      13.5536473219      2.2909790776      0.0000000000
2.0114596568           79.2167584680      0.4460000000      13.5482702226      2.3012728237      0.0000000000
2.0190543064           76.9051677514      0.4480000000      13.5428157416      2.3114509460      0.0000000000
2.0265508635           74.6842099971      0.4500000000      13.5372854211      2.3215139884      0.0000000000
2.0339501245           72.5496106359      0.4520000000      13.5316807861      2.3314625172      0.0000000000
2.0412528953           70.4973317837      0.4540000000      13.5260033695      2.3412971192      0.0000000000
