# M(M_sol)                 Lambda          n_Bc(fm^-3)         R(km)            m_B(M_sol)        m_Bquar/M_B
0.1553391713      9855309.9074152242      0.1690000000      16.5284468723      0.1556139014      0.0000000000
0.1622137938      7921535.0509971315      0.1710000000      15.9834776890      0.1625965339      0.0000000000
0.1693894468      6395716.0593684679      0.1730000000      15.5082118925      0.1698934324      0.0000000000
0.1768625206      5186267.3896741727      0.1750000000      15.0923797263      0.1775019234      0.0000000000
0.1846296027      4223373.7175626168      0.1770000000      14.7275123173      0.1854195511      0.0000000000
0.1926872482      3453485.0124297668      0.1790000000      14.4065589029      0.1936438415      0.0000000000
0.2010321342      2835345.1959224041      0.1810000000      14.1236344739      0.2021724601      0.0000000000
0.2096609588      2337019.3806318324      0.1830000000      13.8737936350      0.2110031066      0.0000000000
0.2185702988      1933675.3048446712      0.1850000000      13.6528480461      0.2201333686      0.0000000000
0.2277567421      1605932.9506942558      0.1870000000      13.4572444810      0.2295608553      0.0000000000
0.2372167609      1338601.6878754713      0.1890000000      13.2839449375      0.2392830668      0.0000000000
0.2469467685      1119731.6028728390      0.1910000000      13.1303469060      0.2492974494      0.0000000000
0.2569430047       939881.9162654890      0.1930000000      12.9942014789      0.2596012775      0.0000000000
0.2672016461       791570.0854097096      0.1950000000      12.8735679179      0.2701917636      0.0000000000
0.2777186922       668840.1264392912      0.1970000000      12.7667557447      0.2810659403      0.0000000000
0.2884899964       566935.1732331965      0.1990000000      12.6722902294      0.2922206895      0.0000000000
0.2995112576       482042.0636305780      0.2010000000      12.5888794666      0.3036527313      0.0000000000
0.3107780431       411093.6647234561      0.2030000000      12.5153902425      0.3153586460      0.0000000000
0.3222857136       351613.2572267837      0.2050000000      12.4508190514      0.3273347933      0.0000000000
0.3340294907       301595.0129895195      0.2070000000      12.3942798454      0.3395773804      0.0000000000
0.3460044566       259408.9499135758      0.2090000000      12.3449881578      0.3520824596      0.0000000000
0.3582054943       223725.5314207747      0.2110000000      12.3022421869      0.3648458626      0.0000000000
0.3706273657       193457.5264809667      0.2130000000      12.2654185179      0.3778632807      0.0000000000
0.3832646477       167712.4987318579      0.2150000000      12.2339562530      0.3911301944      0.0000000000
0.3961118006       145756.1273504683      0.2170000000      12.2073547520      0.4046419434      0.0000000000
0.4091631237       126982.0615984785      0.2190000000      12.1851619461      0.4183936768      0.0000000000
0.4224127878       110888.3154438473      0.2210000000      12.1669707784      0.4323803859      0.0000000000
0.4358548436        97058.1157875897      0.2230000000      12.1524140483      0.4465969094      0.0000000000
0.4494832246        85144.4566385762      0.2250000000      12.1411595788      0.4610379354      0.0000000000
0.4632917385        74857.5633931065      0.2270000000      12.1329045898      0.4756979889      0.0000000000
0.4772740977        65954.9119367503      0.2290000000      12.1273746029      0.4905714627      0.0000000000
0.4914239266        58232.9773452262      0.2310000000      12.1243200311      0.5056526227      0.0000000000
0.5057347691        51520.5312444468      0.2330000000      12.1235135928      0.5209356136      0.0000000000
0.5202000943        45673.1450873145      0.2350000000      12.1247476174      0.5364144635      0.0000000000
0.5348133128        40568.7108379232      0.2370000000      12.1278320867      0.5520830996      0.0000000000
0.5495677620        36103.7527515593      0.2390000000      12.1325930040      0.5679353297      0.0000000000
0.5644567537        32190.3792527987      0.2410000000      12.1388708221      0.5839648924      0.0000000000
0.5794735598        28753.7699472042      0.2430000000      12.1465190748      0.6001654404      0.0000000000
0.5946114353        25730.1046098838      0.2450000000      12.1554038523      0.6165305629      0.0000000000
0.6098636036        23064.7939322792      0.2470000000      12.1654004402      0.6330537694      0.0000000000
0.6252233004        20711.0944641370      0.2490000000      12.1763955867      0.6497285352      0.0000000000
0.6406837677        18628.8781020699      0.2510000000      12.1882851102      0.6665482947      0.0000000000
0.6562382487        16783.6085131444      0.2530000000      12.2009718517      0.6835064339      0.0000000000
0.6718800104        15145.5256934500      0.2550000000      12.2143662538      0.7005963151      0.0000000000
0.6876023538        13688.9302974802      0.2570000000      12.2283857779      0.7178112867      0.0000000000
0.7033986279        12391.5978208821      0.2590000000      12.2429550838      0.7351446983      0.0000000000
0.7192622320        11234.2632098890      0.2610000000      12.2580046110      0.7525899029      0.0000000000
0.7351866039        10200.1873768305      0.2630000000      12.2734685748      0.7701402430      0.0000000000
0.7511652519         9274.8166933105      0.2650000000      12.2892868163      0.7877890864      0.0000000000
0.7671917673         8445.4759994671      0.2670000000      12.3054047122      0.8055298395      0.0000000000
0.7832598024         7701.0934953838      0.2690000000      12.3217703188      0.8233559230      0.0000000000
0.7993631075         7031.9979983185      0.2710000000      12.3383369189      0.8412608132      0.0000000000
0.8154955151         6429.7156682546      0.2730000000      12.3550605190      0.8592380248      0.0000000000
0.8316509481         5886.8131616243      0.2750000000      12.3718999878      0.8772811203      0.0000000000
0.8478234456         5396.7672723472      0.2770000000      12.3888186859      0.8953837391      0.0000000000
0.8640071451         4953.8358160772      0.2790000000      12.4057820763      0.9135395788      0.0000000000
0.8801962895         4552.9575542619      0.2810000000      12.4227577296      0.9317424029      0.0000000000
0.8963852456         4189.6697820121      0.2830000000      12.4397165474      0.9499860630      0.0000000000
0.9125684913         3860.0266930345      0.2850000000      12.4566309798      0.9682644852      0.0000000000
0.9287406377         3560.5395293847      0.2870000000      12.4734766558      0.9865716954      0.0000000000
0.9448964148         3288.1150733244      0.2890000000      12.4902305512      1.0049018050      0.0000000000
0.9610306746         3040.0072369080      0.2910000000      12.5068708894      1.0232490152      0.0000000000
0.9771384059         2813.7773286276      0.2930000000      12.5233781885      1.0416076343      0.0000000000
0.9932147418         2607.2581465273      0.2950000000      12.5397357507      1.0599720889      0.0000000000
1.0092549234         2418.5135364246      0.2970000000      12.5559257204      1.0783368823      0.0000000000
1.0252543554         2245.8218988945      0.2990000000      12.5719344432      1.0966966607      0.0000000000
1.0412085621         2087.6421340628      0.3010000000      12.5877477457      1.1150461628      0.0000000000
1.0571132076         1942.5968712004      0.3030000000      12.6033528578      1.1333802460      0.0000000000
1.0729641038         1809.4544043716      0.3050000000      12.6187392465      1.1516938958      0.0000000000
1.0887571928         1687.1090988978      0.3070000000      12.6338963530      1.1699822074      0.0000000000
1.1044885586         1574.5693825909      0.3090000000      12.6488150309      1.1882404013      0.0000000000
1.1201544243         1470.9443410255      0.3110000000      12.6634870819      1.2064638210      0.0000000000
1.1357511506         1375.4326168640      0.3130000000      12.6779051210      1.2246479327      0.0000000000
1.1512752354         1287.3124324185      0.3150000000      12.6920624760      1.2427883274      0.0000000000
1.1667233146         1205.9334335402      0.3170000000      12.7059534570      1.2608807221      0.0000000000
1.1820921593         1130.7085606897      0.3190000000      12.7195729374      1.2789209594      0.0000000000
1.1973786760         1061.1076231284      0.3210000000      12.7329166108      1.2969050083      0.0000000000
1.2125799002          996.6507185789      0.3230000000      12.7459803194      1.3148289594      0.0000000000
1.2276930028          936.9038086874      0.3250000000      12.7587608882      1.3326890329      0.0000000000
1.2427152867          881.4737514155      0.3270000000      12.7712559612      1.3504815769      0.0000000000
1.2576441775          830.0034952620      0.3290000000      12.7834630795      1.3682030583      0.0000000000
1.2724772314          782.1691935538      0.3310000000      12.7953807539      1.3858500726      0.0000000000
1.2872121235          737.6761504751      0.3330000000      12.8070073661      1.4034193329      0.0000000000
1.3018466545          696.2565579182      0.3350000000      12.8183421376      1.4209076782      0.0000000000
1.3163787462          657.6667045151      0.3370000000      12.8293848748      1.4383120711      0.0000000000
1.3308064326          621.6840727943      0.3390000000      12.8401351312      1.4556295869      0.0000000000
1.3451278631          588.1057305049      0.3410000000      12.8505928431      1.4728574202      0.0000000000
1.3593413054          556.7468342567      0.3430000000      12.8607590241      1.4899928895      0.0000000000
1.3734451304          527.4379771736      0.3450000000      12.8706341248      1.5070334205      0.0000000000
1.3874378206          500.0245264749      0.3470000000      12.8802194217      1.5239765571      0.0000000000
1.4013179590          474.3646960085      0.3490000000      12.8895159684      1.5408199505      0.0000000000
1.4150842320          450.3286490501      0.3510000000      12.8985251744      1.5575613628      0.0000000000
1.4287354272          427.7974076642      0.3530000000      12.9072489025      1.5741986667      0.0000000000
1.4422704298          406.6618866329      0.3550000000      12.9156893692      1.5907298418      0.0000000000
1.4556882105          386.8214542938      0.3570000000      12.9238479125      1.6071529612      0.0000000000
1.4689878391          368.1840121217      0.3590000000      12.9317270008      1.6234662094      0.0000000000
1.4821684734          350.6647789700      0.3610000000      12.9393292028      1.6396678701      0.0000000000
1.4952293550          334.1856447633      0.3630000000      12.9466569876      1.6557563218      0.0000000000
1.5081698091          318.6746641704      0.3650000000      12.9537130025      1.6717300391      0.0000000000
1.5209892413          304.0654743052      0.3670000000      12.9605000129      1.6875875894      0.0000000000
1.5336871324          290.2967796594      0.3690000000      12.9670205119      1.7033276275      0.0000000000
1.5462630431          277.3121244848      0.3710000000      12.9732777391      1.7189489033      0.0000000000
1.5587166020          265.0592098290      0.3730000000      12.9792743915      1.7344502466      0.0000000000
1.5710475135          253.4898299871      0.3750000000      12.9850139661      1.7498305790      0.0000000000
1.5832555452          242.5592539875      0.3770000000      12.9904994912      1.7650888984      0.0000000000
1.5953405268          232.2259813088      0.3790000000      12.9957336574      1.7802242786      0.0000000000
1.6073023610          222.4518657154      0.3810000000      13.0007206148      1.7952358844      0.0000000000
1.6191409994          213.2011884941      0.3830000000      13.0054629852      1.8101229409      0.0000000000
1.6308564568          204.4409845746      0.3850000000      13.0099642254      1.8248847536      0.0000000000
1.6424488042          196.1406563829      0.3870000000      13.0142278955      1.8395206998      0.0000000000
1.6539181643          188.2717269875      0.3890000000      13.0182573481      1.8540302231      0.0000000000
1.6652647063          180.8076242690      0.3910000000      13.0220553796      1.8684128283      0.0000000000
1.6764886580          173.7238632043      0.3930000000      13.0256261267      1.8826680970      0.0000000000
1.6875902865          166.9974751322      0.3950000000      13.0289727286      1.8967956637      0.0000000000
1.6985699073          160.6071573454      0.3970000000      13.0320988690      1.9107952282      0.0000000000
1.7094278723          154.5329172370      0.3990000000      13.0350073329      1.9246665404      0.0000000000
1.7201645816          148.7562737427      0.4010000000      13.0377020190      1.9384094164      0.0000000000
1.7307804714          143.2599314954      0.4030000000      13.0401864236      1.9520237232      0.0000000000
1.7412760142          138.0277360028      0.4050000000      13.0424640077      1.9655093797      0.0000000000
1.7516517161          133.0445611812      0.4070000000      13.0445379845      1.9788663531      0.0000000000
1.7619081159          128.2962574798      0.4090000000      13.0464114554      1.9920946586      0.0000000000
1.7720457873          123.7696712560      0.4110000000      13.0480880916      2.0051943631      0.0000000000
1.7820653332          119.4524754435      0.4130000000      13.0495714128      2.0181655772      0.0000000000
1.7919673835          115.3330963530      0.4150000000      13.0508646978      2.0310084535      0.0000000000
1.8017525932          111.4006831553      0.4170000000      13.0519710517      2.0437231838      0.0000000000
1.8114216436          107.6450734209      0.4190000000      13.0528936689      2.0563100015      0.0000000000
1.8209752429          104.0568002930      0.4210000000      13.0536362660      2.0687691827      0.0000000000
1.8304141168          100.6268966166      0.4230000000      13.0542017511      2.0811010336      0.0000000000
1.8397390122           97.3469631791      0.4250000000      13.0545931657      2.0933058962      0.0000000000
1.8489506984           94.2091453293      0.4270000000      13.0548138541      2.1053841497      0.0000000000
1.8580499633           91.2060709385      0.4290000000      13.0548672417      2.1173362063      0.0000000000
1.8670376067           88.3307376617      0.4310000000      13.0547559430      2.1291625013      0.0000000000
1.8759144500           85.5766370893      0.4330000000      13.0544833903      2.1408635078      0.0000000000
1.8846813257           82.9376029992      0.4350000000      13.0540525217      2.1524397219      0.0000000000
1.8933390800           80.4078239182      0.4370000000      13.0534661632      2.1638916659      0.0000000000
1.9018885739           77.9818621506      0.4390000000      13.0527275327      2.1752198909      0.0000000000
1.9103306779           75.6545661992      0.4410000000      13.0518395129      2.1864249699      0.0000000000
1.9186662716           73.4210658305      0.4430000000      13.0508047187      2.1975074963      0.0000000000
1.9268962488           71.2768193681      0.4450000000      13.0496264516      2.2084680916      0.0000000000
1.9350215077           69.2174944796      0.4470000000      13.0483073479      2.2193073919      0.0000000000
1.9430429543           67.2390025798      0.4490000000      13.0468500035      2.2300260534      0.0000000000
1.9509615028           65.3374929057      0.4510000000      13.0452571587      2.2406247518      0.0000000000
1.9587780740           63.5093417302      0.4530000000      13.0435316793      2.2511041813      0.0000000000
1.9664935950           61.7511251549      0.4550000000      13.0416764686      2.2614650534      0.0000000000
1.9741089925           60.0595546282      0.4570000000      13.0396935987      2.2717080882      0.0000000000
1.9816252038           58.4315936886      0.4590000000      13.0375862793      2.2818340295      0.0000000000
1.9890431635           56.8643036615      0.4610000000      13.0353566413      2.2918436265      0.0000000000
1.9963638111           55.3549264094      0.4630000000      13.0330071667      2.3017376439      0.0000000000
2.0035880897           53.9008673434      0.4650000000      13.0305406090      2.3115168609      0.0000000000
2.0107169396           52.4996270827      0.4670000000      13.0279589798      2.3211820615      0.0000000000
2.0177513070           51.1488827999      0.4690000000      13.0252650930      2.3307340471      0.0000000000
2.0246921360           49.8464140463      0.4710000000      13.0224613800      2.3401736254      0.0000000000
2.0315403669           48.5900774713      0.4730000000      13.0195495736      2.3495016074      0.0000000000
2.0382969456           47.3778990164      0.4750000000      13.0165324868      2.3587188212      0.0000000000
2.0449628137           46.2079755432      0.4770000000      13.0134123598      2.3678260977      0.0000000000
2.0515389100           45.0784893261      0.4790000000      13.0101911906      2.3768242729      0.0000000000
2.0580261723           43.9877233373      0.4810000000      13.0068711313      2.3857141902      0.0000000000
2.0644255361           42.9340476058      0.4830000000      13.0034543414      2.3944966983      0.0000000000
2.0707379354           41.9159191939      0.4850000000      12.9999431056      2.4031726530      0.0000000000
2.0769642994           40.9318629502      0.4870000000      12.9963394950      2.4117429116      0.0000000000
2.0831055521           39.9804558216      0.4890000000      12.9926451175      2.4202083329      0.0000000000
2.0891626194           39.0603946171      0.4910000000      12.9888627022      2.4285697872      0.0000000000
2.0951364151           38.1703708855      0.4930000000      12.9849934119      2.4368281355      0.0000000000
2.1010278554           37.3091947831      0.4950000000      12.9810396535      2.4449842514      0.0000000000
2.1068378486           36.4757062663      0.4970000000      12.9770032058      2.4530390051      0.0000000000
2.1125672993           35.6688077578      0.4990000000      12.9728860027      2.4609932700      0.0000000000
2.1182171063           34.8874502717      0.5010000000      12.9686898726      2.4688479196      0.0000000000
2.1237881630           34.1306310312      0.5030000000      12.9644165566      2.4766038275      0.0000000000
2.1292813574           33.3973965616      0.5050000000      12.9600678795      2.4842618680      0.0000000000
2.1346975700           32.6868232581      0.5070000000      12.9556452056      2.4918229122      0.0000000000
2.1400376807           31.9980664347      0.5090000000      12.9511509227      2.4992878389      0.0000000000
2.1453025560           31.3302716780      0.5110000000      12.9465860406      2.5066575147      0.0000000000
2.1504930626           30.6826629514      0.5130000000      12.9419526991      2.5139328149      0.0000000000
2.1556100567           30.0544737997      0.5150000000      12.9372522629      2.5211146067      0.0000000000
2.1606543889           29.4449776159      0.5170000000      12.9324862446      2.5282037572      0.0000000000
2.1656269044           28.8534867084      0.5190000000      12.9276563562      2.5352011331      0.0000000000
2.1705284407           28.2793381061      0.5210000000      12.9227641055      2.5421075971      0.0000000000
2.1753598281           27.7218979896      0.5230000000      12.9178109881      2.5489240091      0.0000000000
2.1801218911           27.1805614996      0.5250000000      12.9127985211      2.5556512274      0.0000000000
2.1848154446           26.6547375992      0.5270000000      12.9077278221      2.5622901041      0.0000000000
