# M(M_sol)                 Lambda          n_Bc(fm^-3)         R(km)            m_B(M_sol)        m_Bquar/M_B
0.1536557660     43007017.5075526908      0.0930000000      23.3325029495      0.1539103055      0.0000000000
0.1599243056     35445824.6266325712      0.0950000000      22.3882187446      0.1602666791      0.0000000000
0.1663230862     29413863.8725191802      0.0970000000      21.5768026159      0.1667607108      0.0000000000
0.1728447024     24555759.0141604692      0.0990000000      20.8737713360      0.1733851798      0.0000000000
0.1794824251     20611544.4785907343      0.1010000000      20.2601711247      0.1801335343      0.0000000000
0.1862301148     17386923.4399243407      0.1030000000      19.7211158316      0.1869998054      0.0000000000
0.1930821631     14734248.6029209923      0.1050000000      19.2447635327      0.1939785491      0.0000000000
0.2000334396     12539831.5630501155      0.1070000000      18.8215847528      0.2010647936      0.0000000000
0.2070792457     10715159.3467810005      0.1090000000      18.4438308472      0.2082539941      0.0000000000
0.2142152831      9190697.8011944871      0.1110000000      18.1051435130      0.2155420018      0.0000000000
0.2214190839      7914364.4001104655      0.1130000000      17.8009970300      0.2229060736      0.0000000000
0.2285532473      6858797.5180081679      0.1150000000      17.5315287194      0.2302057308      0.0000000000
0.2356745143      5972316.5363912722      0.1170000000      17.2894694640      0.2374988982      0.0000000000
0.2428048770      5221138.6938954499      0.1190000000      17.0703170819      0.2448080809      0.0000000000
0.2499530155      4580614.5506442403      0.1210000000      16.8708419396      0.2521422037      0.0000000000
0.2571237591      4031608.6170175597      0.1230000000      16.6884862281      0.2595062691      0.0000000000
0.2643202779      3558905.5502020926      0.1250000000      16.5211526978      0.2669035936      0.0000000000
0.2715449013      3150236.4517790377      0.1270000000      16.3670887318      0.2743366415      0.0000000000
0.2787994941      2795609.3982601990      0.1290000000      16.2248122653      0.2818074089      0.0000000000
0.2860856560      2486817.7703922722      0.1310000000      16.0930568292      0.2893176274      0.0000000000
0.2934048315      2217078.0334029119      0.1330000000      15.9707331756      0.2968688754      0.0000000000
0.3007583772      1980746.9916129240      0.1350000000      15.8568972042      0.3044626483      0.0000000000
0.3081475997      1773107.2601455555      0.1370000000      15.7507272154      0.3121003959      0.0000000000
0.3155737847      1590194.9369148780      0.1390000000      15.6515036047      0.3197835531      0.0000000000
0.3230382110      1428664.9250109557      0.1410000000      15.5585937938      0.3275135544      0.0000000000
0.3305421609      1285682.6816290466      0.1430000000      15.4714393753      0.3352918441      0.0000000000
0.3380869252      1158837.1008797747      0.1450000000      15.3895455242      0.3431198821      0.0000000000
0.3456738075      1046069.7558794995      0.1470000000      15.3124722901      0.3509991483      0.0000000000
0.3533041250       945617.4263328138      0.1490000000      15.2398272850      0.3589311437      0.0000000000
0.3609792053       855965.0130734094      0.1510000000      15.1712593845      0.3669173866      0.0000000000
0.3687003881       775806.6003979159      0.1530000000      15.1064536991      0.3749594153      0.0000000000
0.3764690216       704013.2130688810      0.1550000000      15.0451268516      0.3830587840      0.0000000000
0.3842864598       639606.2314036856      0.1570000000      14.9870233356      0.3912170607      0.0000000000
0.3921540657       581735.2384495559      0.1590000000      14.9319123068      0.3994358297      0.0000000000
0.4000731790       529659.4036105118      0.1610000000      14.8795846721      0.4077166587      0.0000000000
0.4080451563       482731.5218916515      0.1630000000      14.8298504931      0.4160611408      0.0000000000
0.4160713372       440385.1012596083      0.1650000000      14.7825370098      0.4244708591      0.0000000000
0.4241530477       402123.2163856120      0.1670000000      14.7374868105      0.4329473901      0.0000000000
0.4322915963       367508.9338237231      0.1690000000      14.6945561611      0.4414923001      0.0000000000
0.4404882696       336157.3184256714      0.1710000000      14.6536135657      0.4501071403      0.0000000000
0.4487443272       307728.6105451228      0.1730000000      14.6145385215      0.4587934412      0.0000000000
0.4570609976       281922.3400978799      0.1750000000      14.5772203611      0.4675527089      0.0000000000
0.4654394747       258472.2566101740      0.1770000000      14.5415573272      0.4763864211      0.0000000000
0.4738809129       237142.0999214012      0.1790000000      14.5074558898      0.4852960216      0.0000000000
0.4823864229       217721.7275172393      0.1810000000      14.4748294475      0.4942829162      0.0000000000
0.4909570629       200024.1266585056      0.1830000000      14.4435982805      0.5033484629      0.0000000000
0.4995938531       183882.3285927259      0.1850000000      14.4136883648      0.5124939876      0.0000000000
0.5082977437       169147.3405239186      0.1870000000      14.3850313077      0.5217207497      0.0000000000
0.5170696310       155685.7668124131      0.1890000000      14.3575634715      0.5310299590      0.0000000000
0.5259103470       143378.1175031936      0.1910000000      14.3312256673      0.5404227643      0.0000000000
0.5348206571       132117.2173203737      0.1930000000      14.3059629160      0.5499002513      0.0000000000
0.5438012571       121806.7533305209      0.1950000000      14.2817238440      0.5594634385      0.0000000000
0.5528527679       112360.1129117134      0.1970000000      14.2584604479      0.5691132715      0.0000000000
0.5619757347       103699.2827200641      0.1990000000      14.2361278037      0.5788506219      0.0000000000
0.5711706232        95753.9208840469      0.2010000000      14.2146838577      0.5886762827      0.0000000000
0.5804378162        88460.5332048927      0.2030000000      14.1940890612      0.5985909644      0.0000000000
0.5897776132        81761.7263227945      0.2050000000      14.1743063118      0.6085952941      0.0000000000
0.5991902254        75605.5804884090      0.2070000000      14.1553005493      0.6186898099      0.0000000000
0.6086757748        69945.0893940363      0.2090000000      14.1370387788      0.6288749588      0.0000000000
0.6182342944        64737.6137481036      0.2110000000      14.1194897546      0.6391510973      0.0000000000
0.6278657229        59944.4909728397      0.2130000000      14.1026240222      0.6495184847      0.0000000000
0.6375699055        55530.5865794420      0.2150000000      14.0864134614      0.6599772833      0.0000000000
0.6473465936        51463.9735690106      0.2170000000      14.0708315286      0.6705275574      0.0000000000
0.6571954412        47715.5976781536      0.2190000000      14.0558528705      0.6811692696      0.0000000000
0.6671160069        44259.0091501697      0.2210000000      14.0414533910      0.6919022813      0.0000000000
0.6771077521        41070.0966629247      0.2230000000      14.0276099829      0.7027263508      0.0000000000
0.6871700416        38126.8857718205      0.2250000000      14.0143007033      0.7136411326      0.0000000000
0.6973021437        35409.3084415454      0.2270000000      14.0015044073      0.7246461777      0.0000000000
0.7075032294        32899.0482249665      0.2290000000      13.9892008877      0.7357409312      0.0000000000
0.7177723748        30579.3604784468      0.2310000000      13.9773707111      0.7469247346      0.0000000000
0.7281085608        28434.9402314655      0.2330000000      13.9659951828      0.7581968247      0.0000000000
0.7385106752        26451.7766554322      0.2350000000      13.9550563737      0.7695563352      0.0000000000
0.7489775129        24617.0480989619      0.2370000000      13.9445368593      0.7810022953      0.0000000000
0.7595077785        22919.0061439182      0.2390000000      13.9344199220      0.7925336333      0.0000000000
0.7701000874        21346.8876037442      0.2410000000      13.9246893754      0.8041491756      0.0000000000
0.7807529694        19890.8139817371      0.2430000000      13.9153295526      0.8158476509      0.0000000000
0.7914648682        18541.7348686272      0.2450000000      13.9063252749      0.8276276878      0.0000000000
0.8022341469        17291.3333573180      0.2470000000      13.8976618645      0.8394878212      0.0000000000
0.8130590886        16131.9755614608      0.2490000000      13.8893250354      0.8514264914      0.0000000000
0.8239379000        15056.6488694962      0.2510000000      13.8813009414      0.8634420472      0.0000000000
0.8348687147        14058.9064533614      0.2530000000      13.8735761359      0.8755327497      0.0000000000
0.8458495960        13132.8212117240      0.2550000000      13.8661375810      0.8876967735      0.0000000000
0.8568785404        12272.9411272611      0.2570000000      13.8589725155      0.8999322105      0.0000000000
0.8679534797        11474.2502876884      0.2590000000      13.8520686053      0.9122370713      0.0000000000
0.8790722874        10732.1308505703      0.2610000000      13.8454138093      0.9246092916      0.0000000000
0.8902327798        10042.3305289372      0.2630000000      13.8389964260      0.9370467329      0.0000000000
0.9014327211         9400.9312446600      0.2650000000      13.8328050538      0.9495471872      0.0000000000
0.9126698266         8804.3248964561      0.2670000000      13.8268286058      0.9621083800      0.0000000000
0.9239417671         8249.1830352824      0.2690000000      13.8210562563      0.9747279746      0.0000000000
0.9352461722         7732.4385845784      0.2710000000      13.8154775176      0.9874035756      0.0000000000
0.9465806352         7251.2616208490      0.2730000000      13.8100821735      1.0001327329      0.0000000000
0.9579427159         6803.0404698676      0.2750000000      13.8048602010      1.0129129455      0.0000000000
0.9693299455         6385.3672107357      0.2770000000      13.7998019637      1.0257416652      0.0000000000
0.9807398309         5996.0149967641      0.2790000000      13.7948980035      1.0386163023      0.0000000000
0.9921698573         5632.9310831187      0.2810000000      13.7901391758      1.0515342268      0.0000000000
1.0036174933         5294.2174774832      0.2830000000      13.7855165668      1.0644927746      0.0000000000
1.0150801948         4978.1199961196      0.2850000000      13.7810214938      1.0774892515      0.0000000000
1.0265554081         4683.0186596209      0.2870000000      13.7766455714      1.0905209358      0.0000000000
1.0380405744         4407.4148258375      0.2890000000      13.7723806202      1.1035850837      0.0000000000
1.0495331332         4149.9225484966      0.2910000000      13.7682187324      1.1166789329      0.0000000000
1.0610305260         3909.2600918059      0.2930000000      13.7641521791      1.1297997059      0.0000000000
1.0725301997         3684.2415814035      0.2950000000      13.7601735593      1.1429446146      0.0000000000
1.0840296104         3473.7690568138      0.2970000000      13.7562756474      1.1561108638      0.0000000000
1.0955262268         3276.8258471837      0.2990000000      13.7524514810      1.1692956553      0.0000000000
1.1070175326         3092.4709632701      0.3010000000      13.7486942766      1.1824961906      0.0000000000
1.1185010304         2919.8324732346      0.3030000000      13.7449975146      1.1957096752      0.0000000000
1.1299742447         2758.1022732116      0.3050000000      13.7413549116      1.2089333222      0.0000000000
1.1414347256         2606.5315684019      0.3070000000      13.7377603371      1.2221643563      0.0000000000
1.1528800467         2464.4261223265      0.3090000000      13.7342079539      1.2354000119      0.0000000000
1.1643078153         2331.1421526398      0.3110000000      13.7306921008      1.2486375445      0.0000000000
1.1757156699         2206.0821914418      0.3130000000      13.7272073299      1.2618742283      0.0000000000
1.1871012835         2088.6920331549      0.3150000000      13.7237484046      1.2751073602      0.0000000000
1.1984623658         1978.4573698552      0.3170000000      13.7203102922      1.2883342623      0.0000000000
1.2097966660         1874.9004358299      0.3190000000      13.7168881584      1.3015522853      0.0000000000
1.2211019734         1777.5777059070      0.3210000000      13.7134773698      1.3147588102      0.0000000000
1.2323761203         1686.0772022045      0.3230000000      13.7100734791      1.3279512508      0.0000000000
1.2436169833         1600.0157333889      0.3250000000      13.7066722259      1.3411270566      0.0000000000
1.2548224844         1519.0374807193      0.3270000000      13.7032695535      1.3542837139      0.0000000000
1.2659905928         1442.8114237806      0.3290000000      13.6998615804      1.3674187482      0.0000000000
1.2771193260         1371.0297101512      0.3310000000      13.6964445860      1.3805297262      0.0000000000
1.2882067509         1303.4058355253      0.3330000000      13.6930150540      1.3936142571      0.0000000000
1.2992509847         1239.6732527598      0.3350000000      13.6895696162      1.4066699945      0.0000000000
1.3102501957         1179.5838199037      0.3370000000      13.6861050797      1.4196946374      0.0000000000
1.3212026046         1122.9062701397      0.3390000000      13.6826184203      1.4326859323      0.0000000000
1.3321064839         1069.4253921195      0.3410000000      13.6791067394      1.4456416732      0.0000000000
1.3429601597         1018.9405261531      0.3430000000      13.6755673428      1.4585597037      0.0000000000
1.3537620112          971.2646344449      0.3450000000      13.6719976665      1.4714379174      0.0000000000
1.3645104713          926.2233695740      0.3470000000      13.6683952619      1.4842742588      0.0000000000
1.3752040268          883.6540071028      0.3490000000      13.6647578576      1.4970667242      0.0000000000
1.3858412187          843.4047565727      0.3510000000      13.6610833466      1.5098133623      0.0000000000
1.3964206414          805.3339878936      0.3530000000      13.6573696599      1.5225122742      0.0000000000
1.4069409435          769.3094759847      0.3550000000      13.6536149594      1.5351616144      0.0000000000
1.4174008269          735.2076623613      0.3570000000      13.6498174800      1.5477595908      0.0000000000
1.4277990475          702.9131034486      0.3590000000      13.6459755961      1.5603044653      0.0000000000
1.4381344135          672.3179993328      0.3610000000      13.6420877887      1.5727945530      0.0000000000
1.4484057863          643.3214820632      0.3630000000      13.6381526515      1.5852282234      0.0000000000
1.4586120801          615.8292461277      0.3650000000      13.6341689109      1.5976039007      0.0000000000
1.4687522579          589.7530922169      0.3670000000      13.6301353563      1.6099200592      0.0000000000
1.4788253368          565.0104557046      0.3690000000      13.6260509248      1.6221752304      0.0000000000
1.4888303831          541.5240264491      0.3710000000      13.6219146331      1.6343679979      0.0000000000
1.4987665131          519.2214562435      0.3730000000      13.6177255757      1.6464969979      0.0000000000
1.5086328918          498.0349540465      0.3750000000      13.6134829761      1.6585609192      0.0000000000
1.5184287326          477.9009573507      0.3770000000      13.6091860847      1.6705585029      0.0000000000
1.5281532961          458.7599462908      0.3790000000      13.6048343012      1.6824885414      0.0000000000
1.5378058899          440.5560301920      0.3810000000      13.6004270923      1.6943498784      0.0000000000
1.5473858666          423.2368686579      0.3830000000      13.5959639487      1.7061414076      0.0000000000
1.5568926242          406.7532716853      0.3850000000      13.5914444888      1.7178620729      0.0000000000
1.5663256042          391.0591182125      0.3870000000      13.5868683946      1.7295108671      0.0000000000
1.5756842910          376.1110872113      0.3890000000      13.5822354106      1.7410868315      0.0000000000
1.5849682113          361.8684505523      0.3910000000      13.5775453194      1.7525890551      0.0000000000
1.5941769322          348.2930125903      0.3930000000      13.5727980089      1.7640166737      0.0000000000
1.6033100614          335.3488089785      0.3950000000      13.5679933948      1.7753688693      0.0000000000
1.6123672451          323.0020465210      0.3970000000      13.5631314641      1.7866448690      0.0000000000
1.6213481678          311.2209407180      0.3990000000      13.5582122491      1.7978439445      0.0000000000
1.6302525507          299.9755750444      0.4010000000      13.5532358334      1.8089654111      0.0000000000
1.6390801513          289.2378231950      0.4030000000      13.5482023496      1.8200086267      0.0000000000
1.6478307618          278.9811584815      0.4050000000      13.5431119714      1.8309729910      0.0000000000
1.6565042083          269.1806362765      0.4070000000      13.5379649261      1.8418579447      0.0000000000
1.6651003500          259.8127292567      0.4090000000      13.5327614712      1.8526629683      0.0000000000
1.6736190780          250.8552786309      0.4110000000      13.5275019058      1.8633875817      0.0000000000
1.6820603144          242.2873895284      0.4130000000      13.5221865762      1.8740313427      0.0000000000
1.6904240109          234.0893538820      0.4150000000      13.5168158270      1.8845938464      0.0000000000
1.6987101487          226.2425698425      0.4170000000      13.5113900951      1.8950747243      0.0000000000
1.7069187365          218.7295175124      0.4190000000      13.5059097788      1.9054736429      0.0000000000
1.7150498105          211.5335979137      0.4210000000      13.5003753648      1.9157903039      0.0000000000
1.7231034325          204.6392021642      0.4230000000      13.4947873253      1.9260244417      0.0000000000
1.7310796899          198.0315469748      0.4250000000      13.4891461842      1.9361758239      0.0000000000
1.7389786942          191.6966562028      0.4270000000      13.4834524558      1.9462442494      0.0000000000
1.7468005800          185.6213538526      0.4290000000      13.4777067115      1.9562295483      0.0000000000
1.7545455048          179.7931467082      0.4310000000      13.4719095285      1.9661315802      0.0000000000
1.7622136473          174.2002389673      0.4330000000      13.4660615019      1.9759502340      0.0000000000
1.7698052070          168.8314553072      0.4350000000      13.4601632250      1.9856854264      0.0000000000
1.7773204035          163.6762328544      0.4370000000      13.4542153454      1.9953371018      0.0000000000
1.7847594751          158.7245605587      0.4390000000      13.4482184963      2.0049052305      0.0000000000
1.7921226786          153.9669647277      0.4410000000      13.4421733410      2.0143898087      0.0000000000
1.7994102883          149.3944567537      0.4430000000      13.4360805295      2.0237908572      0.0000000000
1.8066225949          144.9985376169      0.4450000000      13.4299407493      2.0331084206      0.0000000000
1.8137599054          140.7711416366      0.4470000000      13.4237546853      2.0423425666      0.0000000000
1.8208225417          136.7046153249      0.4490000000      13.4175230359      2.0514933852      0.0000000000
1.8278108405          132.7917037183      0.4510000000      13.4112464992      2.0605609880      0.0000000000
