# M(M_sol)                 Lambda          n_Bc(fm^-3)         R(km)            m_B(M_sol)        m_Bquar/M_B
0.1545672022     10069380.3928172495      0.1700000000      16.5961880447      0.1548245572      0.0000000000
0.1606856407      8264569.3861863948      0.1720000000      16.0935806096      0.1610375719      0.0000000000
0.1670043367      6815991.1373686418      0.1740000000      15.6517707444      0.1674606028      0.0000000000
0.1735165756      5647456.4502633335      0.1760000000      15.2620050587      0.1740873975      0.0000000000
0.1802159449      4700273.7974333866      0.1780000000      14.9170268151      0.1809119971      0.0000000000
0.1870962583      3928946.1948772301      0.1800000000      14.6107857729      0.1879286599      0.0000000000
0.1941515281      3297999.6792308227      0.1820000000      14.3381997227      0.1951318321      0.0000000000
0.2013759822      2779638.4040743564      0.1840000000      14.0949841265      0.2025161648      0.0000000000
0.2087639575      2351972.0838266639      0.1860000000      13.8774997619      0.2100764058      0.0000000000
0.2163099751      1997686.2199241824      0.1880000000      13.6826473881      0.2178074755      0.0000000000
0.2240086856      1703023.0627922064      0.1900000000      13.5077726622      0.2257044111      0.0000000000
0.2318548110      1457000.5790938155      0.1920000000      13.3505872297      0.2337623066      0.0000000000
0.2398432146      1250820.5826235667      0.1940000000      13.2091174982      0.2419763846      0.0000000000
0.2479688251      1077401.7145515322      0.1960000000      13.0816479019      0.2503419174      0.0000000000
0.2562266648       931023.9683627310      0.1980000000      12.9666852402      0.2588542569      0.0000000000
0.2646118218       807047.6443473817      0.2000000000      12.8629224837      0.2675088046      0.0000000000
0.2731194835       701696.5272625497      0.2020000000      12.7692153604      0.2763010467      0.0000000000
0.2817448862       611884.3475241936      0.2040000000      12.6845548190      0.2852265019      0.0000000000
0.2904833085       535079.6942245577      0.2060000000      12.6080475059      0.2942807139      0.0000000000
0.2993301300       469200.1291307174      0.2080000000      12.5389054906      0.3034593123      0.0000000000
0.3082807804       412525.8436573080      0.2100000000      12.4764279476      0.3127579598      0.0000000000
0.3173307350       363631.6154988661      0.2120000000      12.4199892975      0.3221723475      0.0000000000
0.3264755579       321333.1774262104      0.2140000000      12.3690334712      0.3316982395      0.0000000000
0.3357108148       284642.1837040483      0.2160000000      12.3230575073      0.3413313821      0.0000000000
0.3450322112       252732.9765774137      0.2180000000      12.2816171766      0.3510676481      0.0000000000
0.3544354496       224912.0842924252      0.2200000000      12.2443076493      0.3609028872      0.0000000000
0.3639163170       200596.2820489682      0.2220000000      12.2107661491      0.3708330183      0.0000000000
0.3734706535       179293.3561557474      0.2240000000      12.1806644596      0.3808539958      0.0000000000
0.3830943663       160586.8293554133      0.2260000000      12.1537061100      0.3909618251      0.0000000000
0.3927834205       144123.3357878846      0.2280000000      12.1296220219      0.4011525527      0.0000000000
0.4025338433       129602.2526155470      0.2300000000      12.1081679222      0.4114222705      0.0000000000
0.4123417314       116767.2432580143      0.2320000000      12.0891221654      0.4217671243      0.0000000000
0.4222032401       105399.0731304873      0.2340000000      12.0722822250      0.4321833021      0.0000000000
0.4321145905        95309.8723411061      0.2360000000      12.0574635676      0.4426670419      0.0000000000
0.4420720759        86338.2599561432      0.2380000000      12.0444980978      0.4532146392      0.0000000000
0.4520720554        78345.2611298034      0.2400000000      12.0332319184      0.4638224397      0.0000000000
0.4621109358        71210.8662942867      0.2420000000      12.0235223814      0.4744868207      0.0000000000
0.4721852306        64831.4019198814      0.2440000000      12.0152415021      0.4852042545      0.0000000000
0.4822914877        59116.9543786654      0.2460000000      12.0082704246      0.4959712312      0.0000000000
0.4924263430        53989.4156648224      0.2480000000      12.0024998481      0.5067843163      0.0000000000
0.5025864975        49380.8247572864      0.2500000000      11.9978295079      0.5176401264      0.0000000000
0.5127687159        45231.8872426530      0.2520000000      11.9941662722      0.5285353291      0.0000000000
0.5229698487        41490.8468284361      0.2540000000      11.9914258055      0.5394666653      0.0000000000
0.5331868095        38112.3717081826      0.2560000000      11.9895296093      0.5504309269      0.0000000000
0.5434165746        35056.6888728209      0.2580000000      11.9884044058      0.5614249558      0.0000000000
0.5536562093        32288.8945574851      0.2600000000      11.9879841133      0.5724456728      0.0000000000
0.5639028447        29778.2578890831      0.2620000000      11.9882072058      0.5834900534      0.0000000000
0.5741536652        27497.6512051659      0.2640000000      11.9890150819      0.5945551141      0.0000000000
0.5844059582        25423.1771167647      0.2660000000      11.9903563956      0.6056379673      0.0000000000
0.5946570470        23533.6414084976      0.2680000000      11.9921804513      0.6167357483      0.0000000000
0.6049043582        21810.3164654132      0.2700000000      11.9944432050      0.6278456897      0.0000000000
0.6151453714        20236.5585204383      0.2720000000      11.9971022415      0.6389650665      0.0000000000
0.6253776369        18797.5793569929      0.2740000000      12.0001183297      0.6500912163      0.0000000000
0.6355987875        17480.2301586351      0.2760000000      12.0034561644      0.6612215526      0.0000000000
0.6458065015        16272.7674065663      0.2780000000      12.0070809116      0.6723535243      0.0000000000
0.6559985522        15164.7373563267      0.2800000000      12.0109626305      0.6834846714      0.0000000000
0.6661727592        14146.7723362746      0.2820000000      12.0150715079      0.6946125710      0.0000000000
0.6763270303        13210.5094191422      0.2840000000      12.0193817772      0.7057348845      0.0000000000
0.6864593175        12348.4322903669      0.2860000000      12.0238674821      0.7168493095      0.0000000000
0.6965676638        11553.8165535018      0.2880000000      12.0285067468      0.7279536317      0.0000000000
0.7066501499        10820.5983469203      0.2900000000      12.0332768151      0.7390456668      0.0000000000
0.7167049496        10143.3441605110      0.2920000000      12.0381591198      0.7501233223      0.0000000000
0.7267302766         9517.1406820571      0.2940000000      12.0431342915      0.7611845381      0.0000000000
0.7367244211         8937.5676806721      0.2960000000      12.0481855795      0.7722273295      0.0000000000
0.7466857281         8400.6286063618      0.2980000000      12.0532968403      0.7832497615      0.0000000000
0.7566126072         7902.7132261257      0.3000000000      12.0584534103      0.7942499614      0.0000000000
0.7665035297         7440.5537759139      0.3020000000      12.0636418152      0.8052261158      0.0000000000
0.7763570219         7011.1887693640      0.3040000000      12.0688492481      0.8161764634      0.0000000000
0.7861716696         6611.9324895260      0.3060000000      12.0740640892      0.8270993008      0.0000000000
0.7959461151         6240.3456748580      0.3080000000      12.0792753972      0.8379929791      0.0000000000
0.8056790573         5894.2114784095      0.3100000000      12.0844731363      0.8488559048      0.0000000000
0.8153692491         5571.5124892649      0.3120000000      12.0896480316      0.8596865376      0.0000000000
0.8250154973         5270.4108864078      0.3140000000      12.0947914007      0.8704833897      0.0000000000
0.8346166619         4989.2314677137      0.3160000000      12.0998953929      0.8812450267      0.0000000000
0.8441716542         4726.4455644104      0.3180000000      12.1049527013      0.8919700651      0.0000000000
0.8536794355         4480.6559579701      0.3200000000      12.1099565526      0.9026571714      0.0000000000
0.8631390187         4250.5862354726      0.3220000000      12.1149009327      0.9133050641      0.0000000000
0.8725494594         4035.0657403928      0.3240000000      12.1197797581      0.9239125047      0.0000000000
0.8819098693         3833.0256488367      0.3260000000      12.1245883537      0.9344783123      0.0000000000
0.8912193948         3643.4816381737      0.3280000000      12.1293212432      0.9450013405      0.0000000000
0.9004772370         3465.5340681520      0.3300000000      12.1339744791      0.9554805003      0.0000000000
0.9096826397         3298.3557889711      0.3320000000      12.1385442883      0.9659147464      0.0000000000
0.9188348850         3141.1851987103      0.3340000000      12.1430268197      0.9763030730      0.0000000000
0.9279332966         2993.3215272714      0.3360000000      12.1474185187      0.9866445174      0.0000000000
0.9369772444         2854.1211642060      0.3380000000      12.1517167863      0.9969381665      0.0000000000
0.9459661358         2722.9903485881      0.3400000000      12.1559190778      1.0071831462      0.0000000000
0.9548994102         2599.3796386898      0.3420000000      12.1600223647      1.0173786158      0.0000000000
0.9637765525         2482.7841736694      0.3440000000      12.1640248438      1.0275237837      0.0000000000
0.9725970853         2372.7377030939      0.3460000000      12.1679250238      1.0376178991      0.0000000000
0.9813605586         2268.8073690444      0.3480000000      12.1717207961      1.0476602399      0.0000000000
0.9900665596         2170.5934486392      0.3500000000      12.1754105601      1.0576501248      0.0000000000
0.9987147122         2077.7265805828      0.3520000000      12.1789932867      1.0675869123      0.0000000000
1.0073046717         1989.8643231824      0.3540000000      12.1824680227      1.0774699956      0.0000000000
1.0158361248         1906.6892583645      0.3560000000      12.1858340022      1.0872988026      0.0000000000
1.0243087788         1827.9048105271      0.3580000000      12.1890894709      1.0970727830      0.0000000000
1.0327223887         1753.2393125452      0.3600000000      12.1922349094      1.1067914411      0.0000000000
1.0410767250         1682.4378784435      0.3620000000      12.1952694809      1.1164542977      0.0000000000
1.0493715922         1615.2646201169      0.3640000000      12.1981931753      1.1260609123      0.0000000000
1.0576068111         1551.4983979159      0.3660000000      12.2010049073      1.1356108625      0.0000000000
1.0657822425         1490.9356980955      0.3680000000      12.2037053218      1.1451037720      0.0000000000
1.0738977653         1433.3858497176      0.3700000000      12.2062944383      1.1545392852      0.0000000000
1.0819532826         1378.6710758969      0.3720000000      12.2087722900      1.1639170743      0.0000000000
1.0899487216         1326.6258176137      0.3740000000      12.2111391903      1.1732368399      0.0000000000
1.0978840252         1277.0944667963      0.3760000000      12.2133946612      1.1824983002      0.0000000000
1.1057591702         1229.9335803909      0.3780000000      12.2155398001      1.1917012140      0.0000000000
1.1135741488         1185.0083454608      0.3800000000      12.2175751007      1.2008453584      0.0000000000
1.1213289716         1142.1923714538      0.3820000000      12.2195009096      1.2099305320      0.0000000000
1.1290236692         1101.3677440526      0.3840000000      12.2213177801      1.2189565579      0.0000000000
1.1366582893         1062.4237752276      0.3860000000      12.2230260715      1.2279232799      0.0000000000
1.1442329018         1025.2573596880      0.3880000000      12.2246267174      1.2368305681      0.0000000000
1.1517475921          989.7717096990      0.3900000000      12.2261205331      1.2456783128      0.0000000000
1.1592024616          955.8760194871      0.3920000000      12.2275082866      1.2544664232      0.0000000000
1.1665976286          923.4851782159      0.3940000000      12.2287909169      1.2631948301      0.0000000000
1.1739332185          892.5185270633      0.3960000000      12.2299684199      1.2718634733      0.0000000000
1.1812093881          862.9020851734      0.3980000000      12.2310428889      1.2804723317      0.0000000000
1.1884262934          834.5648150289      0.4000000000      12.2320146471      1.2890213838      0.0000000000
1.1955841080          807.4403565065      0.4020000000      12.2328845352      1.2975106311      0.0000000000
1.2026830191          781.4664406656      0.4040000000      12.2336535649      1.3059400921      0.0000000000
1.2097232269          756.5845207885      0.4060000000      12.2343228233      1.3143098025      0.0000000000
1.2167049457          732.7397453660      0.4080000000      12.2348937892      1.3226198167      0.0000000000
1.2236283907          709.8794719396      0.4100000000      12.2353666109      1.3308701911      0.0000000000
1.2304937987          687.9551753369      0.4120000000      12.2357429148      1.3390610101      0.0000000000
1.2373014124          666.9206728092      0.4140000000      12.2360237606      1.3471923670      0.0000000000
1.2440514816          646.7322539237      0.4160000000      12.2362099377      1.3552643648      0.0000000000
1.2507442717          627.3491523888      0.4180000000      12.2363030426      1.3632771278      0.0000000000
1.2573800479          608.7322764990      0.4200000000      12.2363036222      1.3712307812      0.0000000000
1.2639590897          590.8450798122      0.4220000000      12.2362129338      1.3791254697      0.0000000000
1.2704816842          573.6531122629      0.4240000000      12.2360322633      1.3869613489      0.0000000000
1.2769481237          557.1236241326      0.4260000000      12.2357626456      1.3947385829      0.0000000000
1.2833587078          541.2256789131      0.4280000000      12.2354051566      1.4024573464      0.0000000000
1.2897137428          525.9300264457      0.4300000000      12.2349608978      1.4101178241      0.0000000000
1.2960135416          511.2089988216      0.4320000000      12.2344310112      1.4177202112      0.0000000000
1.3022584223          497.0364264306      0.4340000000      12.2338166449      1.4252647107      0.0000000000
1.3084487097          483.3875350463      0.4360000000      12.2331190343      1.4327515363      0.0000000000
1.3145847305          470.2387117514      0.4380000000      12.2323390614      1.4401809058      0.0000000000
1.3206668198          457.5677666429      0.4400000000      12.2314780516      1.4475530495      0.0000000000
1.3266953143          445.3535063147      0.4420000000      12.2305369939      1.4548682018      0.0000000000
1.3326705560          433.5759133879      0.4440000000      12.2295170485      1.4621266058      0.0000000000
1.3385928904          422.2159523914      0.4460000000      12.2284193013      1.4693285108      0.0000000000
1.3444626667          411.2555834877      0.4480000000      12.2272448784      1.4764741728      0.0000000000
1.3502802361          400.6775861309      0.4500000000      12.2259947543      1.4835638529      0.0000000000
1.3560459558          390.4658240212      0.4520000000      12.2246703376      1.4905978213      0.0000000000
1.3617601797          380.6045731407      0.4540000000      12.2232721750      1.4975763463      0.0000000000
1.3674232724          371.0793793701      0.4560000000      12.2218019671      1.5044997119      0.0000000000
1.3730355943          361.8761389497      0.4580000000      12.2202605535      1.5113681989      0.0000000000
1.3785975056          352.9813244959      0.4600000000      12.2186484379      1.5181820900      0.0000000000
1.3841093764          344.3824918680      0.4620000000      12.2169672791      1.5249416825      0.0000000000
1.3895715736          336.0675573068      0.4640000000      12.2152180855      1.5316472718      0.0000000000
1.3949844657          328.0250233590      0.4660000000      12.2134019003      1.5382991576      0.0000000000
1.4003484201          320.2438474209      0.4680000000      12.2115194681      1.5448976405      0.0000000000
1.4056638077          312.7136007623      0.4700000000      12.2095718416      1.5514430272      0.0000000000
1.4109310007          305.4244102444      0.4720000000      12.2075602177      1.5579356285      0.0000000000
1.4161503694          298.3667260897      0.4740000000      12.2054854264      1.5643757552      0.0000000000
1.4213222879          291.5316005459      0.4760000000      12.2033487517      1.5707637246      0.0000000000
1.4264471227          284.9101455519      0.4780000000      12.2011503912      1.5770998470      0.0000000000
1.4315252525          278.4944338699      0.4800000000      12.1988923035      1.5833844501      0.0000000000
1.4365570449          272.2763903630      0.4820000000      12.1965747767      1.5896178493      0.0000000000
1.4415428727          266.2485600419      0.4840000000      12.1941989606      1.5958003695      0.0000000000
1.4464831071          260.4037565986      0.4860000000      12.1917657777      1.6019323348      0.0000000000
1.4513781184          254.7351124518      0.4880000000      12.1892761306      1.6080140711      0.0000000000
1.4562282751          249.2360129988      0.4900000000      12.1867307353      1.6140459037      0.0000000000
1.4610339508          243.9003452984      0.4920000000      12.1841310968      1.6200281666      0.0000000000
1.4657955076          238.7218813082      0.4940000000      12.1814772483      1.6259611809      0.0000000000
1.4705133168          233.6950310572      0.4960000000      12.1787706477      1.6318452819      0.0000000000
1.4751877424          228.8142316100      0.4980000000      12.1760118977      1.6376807977      0.0000000000
1.4798191509          224.0742797589      0.5000000000      12.1732020778      1.6434680613      0.0000000000
1.4844079027          219.4700140323      0.5020000000      12.1703415460      1.6492073999      0.0000000000
1.4889543642          214.9967680208      0.5040000000      12.1674317895      1.6548991509      0.0000000000
1.4934588931          210.6498186690      0.5060000000      12.1644732124      1.6605436420      0.0000000000
1.4979218489          206.4247441020      0.5080000000      12.1614666673      1.6661412054      0.0000000000
1.5023435894          202.3173101629      0.5100000000      12.1584130101      1.6716921732      0.0000000000
1.5067244703          198.3234424014      0.5120000000      12.1553130340      1.6771968766      0.0000000000
1.5110648450          194.4392087725      0.5140000000      12.1521674223      1.6826556458      0.0000000000
1.5153650653          190.6608609797      0.5160000000      12.1489769049      1.6880688110      0.0000000000
1.5196254841          186.9848876823      0.5180000000      12.1457426621      1.6934367056      0.0000000000
1.5238464454          183.4076854284      0.5200000000      12.1424647438      1.6987596533      0.0000000000
1.5280282978          179.9260334204      0.5220000000      12.1391442966      1.7040379858      0.0000000000
1.5321713857          176.5367371725      0.5240000000      12.1357820377      1.7092720311      0.0000000000
1.5362760506          173.2367334850      0.5260000000      12.1323786328      1.7144621154      0.0000000000
1.5403426325          170.0230778675      0.5280000000      12.1289347604      1.7196085648      0.0000000000
