# M(M_sol)                 Lambda          n_Bc(fm^-3)         R(km)            m_B(M_sol)        m_Bquar/M_B
0.1508367031     17137474.0072060563      0.1540000000      18.5277690423      0.1510044706      0.0000000000
0.1558961816     14389774.7428286448      0.1560000000      17.9457108452      0.1561337666      0.0000000000
0.1611808245     12101267.7170744315      0.1580000000      17.4207955060      0.1614958788      0.0000000000
0.1666918147     10192336.2905549724      0.1600000000      16.9466362488      0.1670925661      0.0000000000
0.1724303709      8597776.8442470673      0.1620000000      16.5176837969      0.1729256479      0.0000000000
0.1783974842      7263987.4932728969      0.1640000000      16.1290865116      0.1789967370      0.0000000000
0.1845941412      6146810.3034339277      0.1660000000      15.7766084025      0.1853074658      0.0000000000
0.1910212289      5209784.9702785462      0.1680000000      15.4565314642      0.1918593895      0.0000000000
0.1976794681      4422769.0756998770      0.1700000000      15.1655845924      0.1986539180      0.0000000000
0.2045695013      3760815.4302648497      0.1720000000      14.9008901599      0.2056924052      0.0000000000
0.2116917681      3203243.4772680723      0.1740000000      14.6598958617      0.2129760202      0.0000000000
0.2190466478      2732904.2076563486      0.1760000000      14.4403480538      0.2205058937      0.0000000000
0.2266343358      2335554.5514481026      0.1780000000      14.2402424196      0.2282829907      0.0000000000
0.2344548250      1999354.7203922437      0.1800000000      14.0577908122      0.2363080896      0.0000000000
0.2425080273      1714456.6848892455      0.1820000000      13.8914048777      0.2445819070      0.0000000000
0.2507936104      1472654.4592589512      0.1840000000      13.7396580250      0.2531049288      0.0000000000
0.2593110860      1267105.9016460918      0.1860000000      13.6012736134      0.2618774994      0.0000000000
0.2680597766      1092098.5009447867      0.1880000000      13.4751045967      0.2708997870      0.0000000000
0.2770387999       942856.9290665815      0.1900000000      13.3601173481      0.2801717654      0.0000000000
0.2862470941       815384.6903332410      0.1920000000      13.2553808510      0.2896932393      0.0000000000
0.2956833392       706331.6241441966      0.1940000000      13.1600488261      0.2994637610      0.0000000000
0.3053460954       612887.7597528533      0.1960000000      13.0733618798      0.3094827725      0.0000000000
0.3152336605       532690.9569722780      0.1980000000      12.9946264847      0.3197494558      0.0000000000
0.3253440918       463753.3353336034      0.2000000000      12.9232095095      0.3302627532      0.0000000000
0.3356752850       404400.3299908894      0.2020000000      12.8585383338      0.3410214484      0.0000000000
0.3462249377       353218.8036724332      0.2040000000      12.8000915536      0.3520241261      0.0000000000
0.3569904427       309014.0592613716      0.2060000000      12.7473851731      0.3632690587      0.0000000000
0.3679690789       270775.6184309378      0.2080000000      12.6999836435      0.3747544032      0.0000000000
0.3791578727       237646.8266910256      0.2100000000      12.6574841028      0.3864780546      0.0000000000
0.3905536453       208900.6574158602      0.2120000000      12.6195166794      0.3984376933      0.0000000000
0.4021530331       183919.1859105396      0.2140000000      12.5857424489      0.4106308035      0.0000000000
0.4139524347       162176.3353602743      0.2160000000      12.5558460981      0.4230546161      0.0000000000
0.4259480934       143223.7757207045      0.2180000000      12.5295397660      0.4357061923      0.0000000000
0.4381360744       126678.8252418345      0.2200000000      12.5065586116      0.4485823982      0.0000000000
0.4505122044       112214.1445331748      0.2220000000      12.4866530170      0.4616798377      0.0000000000
0.4630721814        99549.6562458030      0.2240000000      12.4695957188      0.4749949668      0.0000000000
0.4758115161        88445.1726647463      0.2260000000      12.4551744942      0.4885240291      0.0000000000
0.4887255686        78694.5173462685      0.2280000000      12.4431934397      0.5022630924      0.0000000000
0.5018095331        70120.3943197663      0.2300000000      12.4334694211      0.5162080301      0.0000000000
0.5150584759        62570.2016958624      0.2320000000      12.4258337418      0.5303545596      0.0000000000
0.5284673020        55912.3238448825      0.2340000000      12.4201271805      0.5446982034      0.0000000000
0.5420308127        50033.1743248745      0.2360000000      12.4162035527      0.5592343503      0.0000000000
0.5557436846        44834.5492574590      0.2380000000      12.4139261469      0.5739582290      0.0000000000
0.5696004809        40231.4186221100      0.2400000000      12.4131669490      0.5888649194      0.0000000000
0.5835956468        36150.0710109145      0.2420000000      12.4138049829      0.6039493448      0.0000000000
0.5977235778        32526.5570902877      0.2440000000      12.4157306048      0.6192063440      0.0000000000
0.6119785627        29305.2732037684      0.2460000000      12.4188391941      0.6346306081      0.0000000000
0.6263548379        26437.8322051030      0.2480000000      12.4230338189      0.6502167368      0.0000000000
0.6408465612        23882.0791652167      0.2500000000      12.4282240174      0.6659592094      0.0000000000
0.6554478292        21601.2083705589      0.2520000000      12.4343225504      0.6818524007      0.0000000000
0.6701527368        19563.0943039191      0.2540000000      12.4412517107      0.6978906459      0.0000000000
0.6849553246        17739.6220652365      0.2560000000      12.4489368269      0.7140681806      0.0000000000
0.6998495924        16106.1598060559      0.2580000000      12.4573062331      0.7303791546      0.0000000000
0.7148295662        14641.1263618561      0.2600000000      12.4662962571      0.7468177051      0.0000000000
0.7298892428        13325.5600573580      0.2620000000      12.4758449674      0.7633778935      0.0000000000
0.7450226303        12142.7994820520      0.2640000000      12.4858949450      0.7800537499      0.0000000000
0.7602237476        11078.1766790433      0.2660000000      12.4963919557      0.7968392716      0.0000000000
0.7754866450        10118.7716931547      0.2680000000      12.5072861152      0.8137284449      0.0000000000
0.7908053982         9253.1849032857      0.2700000000      12.5185301700      0.8307152386      0.0000000000
0.8061741214         8471.3478025367      0.2720000000      12.5300798560      0.8477936172      0.0000000000
0.8215869752         7764.3581034489      0.2740000000      12.5418937732      0.8649575499      0.0000000000
0.8370381709         7124.3347348708      0.2760000000      12.5539328762      0.8822010153      0.0000000000
0.8525219856         6544.2943392842      0.2780000000      12.5661611603      0.8995180177      0.0000000000
0.8680327586         6018.0402052074      0.2800000000      12.5785444938      0.9169025836      0.0000000000
0.8835649059         5540.0691253179      0.2820000000      12.5910513252      0.9343487777      0.0000000000
0.8991129193         5105.4875188332      0.2840000000      12.6036518399      0.9518507023      0.0000000000
0.9146713762         4709.9394758256      0.2860000000      12.6163183309      0.9694025087      0.0000000000
0.9302349440         4349.5433739019      0.2880000000      12.6290248940      0.9869984024      0.0000000000
0.9457983845         4020.8369323937      0.2900000000      12.6417474256      1.0046326489      0.0000000000
0.9613565572         3720.7283438171      0.2920000000      12.6544633599      1.0222995778      0.0000000000
0.9769044245         3446.4538041231      0.2940000000      12.6671516440      1.0399935896      0.0000000000
0.9924370578         3195.5401001276      0.2960000000      12.6797928902      1.0577091631      0.0000000000
1.0079496371         2965.7722702570      0.2980000000      12.6923690255      1.0754408563      0.0000000000
1.0234374528         2755.1639435700      0.3000000000      12.7048629495      1.0931833090      0.0000000000
1.0388959131         2561.9322183405      0.3020000000      12.7172589921      1.1109312526      0.0000000000
1.0543205469         2384.4759484395      0.3040000000      12.7295429655      1.1286795139      0.0000000000
1.0697070027         2221.3547496364      0.3060000000      12.7417016614      1.1464230160      0.0000000000
1.0850510419         2071.2717340345      0.3080000000      12.7537219793      1.1641567704      0.0000000000
1.1003485623         1933.0592308911      0.3100000000      12.7655932090      1.1818759066      0.0000000000
1.1155955768         1805.6635330057      0.3120000000      12.7773045222      1.1995756479      0.0000000000
1.1307882301         1688.1336437989      0.3140000000      12.7888466407      1.2172513328      0.0000000000
1.1459227891         1579.6104273748      0.3160000000      12.8002107657      1.2348984043      0.0000000000
1.1609956428         1479.3164502968      0.3180000000      12.8113883662      1.2525124120      0.0000000000
1.1760033114         1386.5483601442      0.3200000000      12.8223721829      1.2700890235      0.0000000000
1.1909424501         1300.6691733449      0.3220000000      12.8331565155      1.2876240307      0.0000000000
1.2058098191         1221.1005926730      0.3240000000      12.8437342719      1.3051133159      0.0000000000
1.2206023264         1147.3184560511      0.3260000000      12.8541011903      1.3225529036      0.0000000000
1.2353169858         1078.8460459853      0.3280000000      12.8642516199      1.3399389120      0.0000000000
1.2499509464         1015.2503036325      0.3300000000      12.8741817202      1.3572675904      0.0000000000
1.2645014753          956.1370160196      0.3320000000      12.8838876795      1.3745352993      0.0000000000
1.2789659625          901.1473022305      0.3340000000      12.8933663258      1.3917385177      0.0000000000
1.2933419122          849.9538697801      0.3360000000      12.9026143699      1.4088738348      0.0000000000
1.3076269600          802.2584836197      0.3380000000      12.9116303652      1.4259379715      0.0000000000
1.3218188405          757.7884596282      0.3400000000      12.9204113005      1.4429277431      0.0000000000
1.3359154205          716.2950738387      0.3420000000      12.9289565477      1.4598401013      0.0000000000
1.3499146666          677.5506002656      0.3440000000      12.9372643090      1.4766720954      0.0000000000
1.3638146592          641.3467130363      0.3460000000      12.9453334736      1.4934208917      0.0000000000
1.3776135911          607.4927000746      0.3480000000      12.9531636384      1.5100837728      0.0000000000
1.3913097654          575.8137958539      0.3500000000      12.9607551679      1.5266581366      0.0000000000
1.4049015701          546.1494330254      0.3520000000      12.9681063708      1.5431414662      0.0000000000
1.4183875204          518.3526158427      0.3540000000      12.9752188029      1.5595313838      0.0000000000
1.4317662141          492.2880254921      0.3560000000      12.9820921958      1.5758255965      0.0000000000
1.4450363559          467.8314551328      0.3580000000      12.9887276890      1.5920219283      0.0000000000
1.4581967390          444.8684928614      0.3600000000      12.9951258002      1.6081182981      0.0000000000
1.4712462516          423.2939202749      0.3620000000      13.0012875620      1.6241127291      0.0000000000
1.4841838715          403.0107578210      0.3640000000      13.0072141700      1.6400033439      0.0000000000
1.4970086675          383.9296442297      0.3660000000      13.0129073439      1.6557883662      0.0000000000
1.5097197874          365.9680931799      0.3680000000      13.0183682574      1.6714661084      0.0000000000
1.5223164623          349.0499471304      0.3700000000      13.0235982778      1.6870349773      0.0000000000
1.5347980099          333.1049421240      0.3720000000      13.0285997454      1.7024934796      0.0000000000
1.5471638168          318.0680245543      0.3740000000      13.0333740084      1.7178402006      0.0000000000
1.5594133543          303.8791235489      0.3760000000      13.0379237414      1.7330738253      0.0000000000
1.5715461581          290.4825415929      0.3780000000      13.0422506509      1.7481931138      0.0000000000
1.5835618371          277.8267412481      0.3800000000      13.0463569252      1.7631969133      0.0000000000
1.5954600707          265.8639723538      0.3820000000      13.0502452013      1.7780841557      0.0000000000
1.6072405957          254.5498743881      0.3840000000      13.0539170707      1.7928538420      0.0000000000
1.6189032226          243.8433871918      0.3860000000      13.0573756588      1.8075050636      0.0000000000
1.6304478164          233.7063170476      0.3880000000      13.0606232708      1.8220369790      0.0000000000
1.6418743013          224.1032029081      0.3900000000      13.0636623734      1.8364488205      0.0000000000
1.6531826571          215.0010557333      0.3920000000      13.0664953792      1.8507398902      0.0000000000
1.6643729229          206.3692388753      0.3940000000      13.0691254763      1.8649095662      0.0000000000
1.6754451820          198.1791727974      0.3960000000      13.0715548249      1.8789572830      0.0000000000
1.6863995700          190.4042697412      0.3980000000      13.0737859844      1.8928825430      0.0000000000
1.6972362768          183.0197849761      0.4000000000      13.0758223967      1.9066849201      0.0000000000
1.7079555271          176.0025898571      0.4020000000      13.0776660894      1.9203640344      0.0000000000
1.7185575975          169.3311493937      0.4040000000      13.0793202078      1.9339195758      0.0000000000
1.7290428020          162.9853452437      0.4060000000      13.0807873598      1.9473512853      0.0000000000
1.7394114989          156.9464041235      0.4080000000      13.0820707310      1.9606589642      0.0000000000
1.7496640792          151.1967640962      0.4100000000      13.0831728207      1.9738424601      0.0000000000
1.7598009684          145.7199856693      0.4120000000      13.0840958611      1.9869016696      0.0000000000
1.7698226361          140.5007549219      0.4140000000      13.0848435128      1.9998365511      0.0000000000
1.7797295765          135.5246888047      0.4160000000      13.0854182253      2.0126470999      0.0000000000
1.7895223172          130.7783280516      0.4180000000      13.0858228096      2.0253333603      0.0000000000
1.7992014155          126.2490722168      0.4200000000      13.0860600878      2.0378954204      0.0000000000
1.8087674561          121.9251015513      0.4220000000      13.0861328571      2.0503334108      0.0000000000
1.8182210502          117.7953340021      0.4240000000      13.0860438572      2.0626475020      0.0000000000
1.8275628334          113.8493700822      0.4260000000      13.0857958175      2.0748379040      0.0000000000
1.8367934654          110.0774483747      0.4280000000      13.0853914924      2.0869048641      0.0000000000
1.8459136287          106.4703981471      0.4300000000      13.0848337434      2.0988486670      0.0000000000
1.8549240219          103.0195966912      0.4320000000      13.0841247406      2.1106696257      0.0000000000
1.8638253736           99.7169624841      0.4340000000      13.0832682384      2.1223681001      0.0000000000
1.8726184154           96.5548499190      0.4360000000      13.0822655825      2.1339444611      0.0000000000
1.8813039097           93.5261080832      0.4380000000      13.0811203080      2.1453991285      0.0000000000
1.8898826280           90.6239835365      0.4400000000      13.0798348382      2.1567325416      0.0000000000
1.8983553570           87.8421125502      0.4420000000      13.0784116708      2.1679451682      0.0000000000
1.9067228976           85.1745086609      0.4440000000      13.0768533428      2.1790375023      0.0000000000
1.9149860647           82.6155233641      0.4460000000      13.0751625900      2.1900100653      0.0000000000
1.9231456816           80.1598279083      0.4480000000      13.0733416667      2.2008633977      0.0000000000
1.9312025853           77.8023992494      0.4500000000      13.0713932419      2.2115980670      0.0000000000
1.9391576211           75.5384915528      0.4520000000      13.0693197404      2.2222146595      0.0000000000
1.9470116436           73.3636251889      0.4540000000      13.0671236235      2.2327137829      0.0000000000
1.9547655139           71.2735647925      0.4560000000      13.0648071599      2.2430960621      0.0000000000
1.9624201021           69.2643123862      0.4580000000      13.0623728116      2.2533621427      0.0000000000
1.9699762842           67.3320847256      0.4600000000      13.0598229533      2.2635126863      0.0000000000
1.9774349409           65.4733028855      0.4620000000      13.0571598478      2.2735483700      0.0000000000
1.9847969582           63.6845805575      0.4640000000      13.0543857200      2.2834698863      0.0000000000
1.9920632270           61.9627128907      0.4660000000      13.0515029130      2.2932779433      0.0000000000
1.9992346406           60.3046641403      0.4680000000      13.0485136122      2.3029732606      0.0000000000
2.0063120971           58.7075604058      0.4700000000      13.0454201685      2.3125565730      0.0000000000
2.0132964912           57.1686672250      0.4720000000      13.0422240933      2.3220286196      0.0000000000
2.0201887294           55.6854109704      0.4740000000      13.0389284357      2.3313901638      0.0000000000
2.0269897087           54.2553312571      0.4760000000      13.0355345173      2.3406419647      0.0000000000
2.0337003364           52.8761122810      0.4780000000      13.0320452468      2.3497848043      0.0000000000
2.0403215094           51.5455341159      0.4800000000      13.0284616978      2.3588194583      0.0000000000
2.0468541331           50.2615057821      0.4820000000      13.0247863783      2.3677467229      0.0000000000
2.0532991085           49.0220356744      0.4840000000      13.0210212340      2.3765673965      0.0000000000
2.0596573363           47.8252333406      0.4860000000      13.0171683193      2.3852822857      0.0000000000
2.0659297114           46.6692918545      0.4880000000      13.0132289175      2.3938921973      0.0000000000
2.0721171351           45.5525103524      0.4900000000      13.0092057841      2.4023979552      0.0000000000
2.0782204988           44.4732571771      0.4920000000      13.0051002872      2.4108003778      0.0000000000
2.0842406935           43.4299828800      0.4940000000      13.0009142589      2.4191002911      0.0000000000
2.0901786076           42.4212147108      0.4960000000      12.9966494990      2.4272985257      0.0000000000
2.0960351265           41.4455501950      0.4980000000      12.9923079120      2.4353959160      0.0000000000
2.1018111311           40.5016525573      0.5000000000      12.9878912211      2.4433932980      0.0000000000
2.1075074974           39.5882457538      0.5020000000      12.9834009385      2.4512915088      0.0000000000
2.1131250982           38.7041162218      0.5040000000      12.9788387431      2.4590913890      0.0000000000
2.1186648026           37.8481081553      0.5060000000      12.9742064582      2.4667937817      0.0000000000
2.1241274742           37.0191180755      0.5080000000      12.9695057307      2.4743995301      0.0000000000
2.1295139713           36.2160902439      0.5100000000      12.9647380237      2.4819094770      0.0000000000
2.1348251461           35.4380201384      0.5120000000      12.9599047760      2.4893244648      0.0000000000
