# M(M_sol)                 Lambda          n_Bc(fm^-3)         R(km)            m_B(M_sol)        m_Bquar/M_B
0.1539460385     10238550.7329099048      0.1690000000      16.6279717101      0.1541976219      0.0000000000
0.1605472761      8275489.9954958521      0.1710000000      16.0846048774      0.1609007421      0.0000000000
0.1674182430      6719668.9319710918      0.1730000000      15.6098551318      0.1678855892      0.0000000000
0.1745545535      5480689.6772217220      0.1750000000      15.1936245999      0.1751485587      0.0000000000
0.1819519660      4489498.7733722171      0.1770000000      14.8275756960      0.1826861995      0.0000000000
0.1896062016      3693016.2086195522      0.1790000000      14.5047698892      0.1904950277      0.0000000000
0.1975133128      3050243.8949465794      0.1810000000      14.2194237769      0.1985719025      0.0000000000
0.2056694232      2529352.6647235667      0.1830000000      13.9666793870      0.2069137599      0.0000000000
0.2140704368      2105498.3326100283      0.1850000000      13.7424052155      0.2155173140      0.0000000000
0.2227126430      1759242.2393392294      0.1870000000      13.5431245685      0.2243796758      0.0000000000
0.2315921005      1475279.7599783151      0.1890000000      13.3658486574      0.2334977209      0.0000000000
0.2407048217      1241521.2147302534      0.1910000000      13.2080096130      0.2428682775      0.0000000000
0.2500469178      1048385.8646491035      0.1930000000      13.0674070503      0.2524882735      0.0000000000
0.2596143711       888242.3638401421      0.1950000000      12.9421289327      0.2623545018      0.0000000000
0.2694031168       754992.5386656587      0.1970000000      12.8305144569      0.2724637035      0.0000000000
0.2794090140       643744.1109636513      0.1990000000      12.7311136463      0.2828125359      0.0000000000
0.2896278716       550558.9142037481      0.2010000000      12.6426589220      0.2933975982      0.0000000000
0.3000554321       472254.6534772534      0.2030000000      12.5640375491      0.3042154135      0.0000000000
0.3106872422       406248.7888656170      0.2050000000      12.4942578237      0.3152622920      0.0000000000
0.3215189140       350442.4237747306      0.2070000000      12.4324557613      0.3265346025      0.0000000000
0.3325458741       303120.3500109999      0.2090000000      12.3778559621      0.3380285083      0.0000000000
0.3437635146       262878.2195922555      0.2110000000      12.3297727983      0.3497401239      0.0000000000
0.3551671599       228562.0070345264      0.2130000000      12.2875959659      0.3616654789      0.0000000000
0.3667519100       199219.1080014849      0.2150000000      12.2507669220      0.3738003514      0.0000000000
0.3785129877       174063.5982515411      0.2170000000      12.2188021106      0.3861406316      0.0000000000
0.3904454182       152442.6046886398      0.2190000000      12.1912565617      0.3986819834      0.0000000000
0.4025441321       133812.9920005401      0.2210000000      12.1677270952      0.4114199507      0.0000000000
0.4148040522       117722.1149513857      0.2230000000      12.1478547218      0.4243500482      0.0000000000
0.4272200658       103791.4760194481      0.2250000000      12.1313172636      0.4374677306      0.0000000000
0.4397869014        91703.1039652149      0.2270000000      12.1178138222      0.4507682599      0.0000000000
0.4524993365        81190.0984302778      0.2290000000      12.1070798624      0.4642469263      0.0000000000
0.4653520155        72027.0767617290      0.2310000000      12.0988672854      0.4778988506      0.0000000000
0.4783395984        64023.7822598638      0.2330000000      12.0929548799      0.4917191434      0.0000000000
0.4914566767        57018.9040029130      0.2350000000      12.0891377309      0.5057028141      0.0000000000
0.5046978429        50875.5398704265      0.2370000000      12.0872312938      0.5198448426      0.0000000000
0.5180576356        45477.0489902140      0.2390000000      12.0870632168      0.5341401206      0.0000000000
0.5315305953        40724.0285503617      0.2410000000      12.0884789043      0.5485835104      0.0000000000
0.5451112466        36531.4228297321      0.2430000000      12.0913344166      0.5631698246      0.0000000000
0.5587941096        32826.3609061665      0.2450000000      12.0954978963      0.5778938371      0.0000000000
0.5725737046        29546.2732710035      0.2470000000      12.1008480391      0.5927502884      0.0000000000
0.5864445586        26637.3203703432      0.2490000000      12.1072729639      0.6077338908      0.0000000000
0.6004012232        24053.0965388141      0.2510000000      12.1146704963      0.6228393479      0.0000000000
0.6144382540        21753.4972729771      0.2530000000      12.1229451151      0.6380613312      0.0000000000
0.6285502330        19703.8109605997      0.2550000000      12.1320085760      0.6533945047      0.0000000000
0.6427317917        17873.9613137952      0.2570000000      12.1417810318      0.6688335483      0.0000000000
0.6569775915        16237.8118609692      0.2590000000      12.1521881626      0.6843731382      0.0000000000
0.6712823144        14772.5950755678      0.2610000000      12.1631592891      0.7000079340      0.0000000000
0.6856407032        13458.4770241956      0.2630000000      12.1746301382      0.7157326242      0.0000000000
0.7000475765        12278.1581333842      0.2650000000      12.1865434841      0.7315419428      0.0000000000
0.7144977696        11216.4709945571      0.2670000000      12.1988427147      0.7474306027      0.0000000000
0.7289862055        10260.1482423161      0.2690000000      12.2114777746      0.7633933756      0.0000000000
0.7435078614         9397.5375617123      0.2710000000      12.2244012860      0.7794250540      0.0000000000
0.7580577843         8618.3980586943      0.2730000000      12.2375693964      0.7955204697      0.0000000000
0.7726310958         7913.7148864629      0.2750000000      12.2509415652      0.8116744983      0.0000000000
0.7872229988         7275.5429397602      0.2770000000      12.2644806766      0.8278820678      0.0000000000
0.8018287760         6696.8657447849      0.2790000000      12.2781523012      0.8441381569      0.0000000000
0.8164437860         6171.4761185700      0.2810000000      12.2919239146      0.8604377914      0.0000000000
0.8310634697         5693.8759918584      0.2830000000      12.3057649605      0.8767760513      0.0000000000
0.8456833633         5259.1928416714      0.2850000000      12.3196477283      0.8931480865      0.0000000000
0.8602991059         4863.1048089550      0.2870000000      12.3335477719      0.9095491260      0.0000000000
0.8749064078         4501.7604950931      0.2890000000      12.3474403193      0.9259744421      0.0000000000
0.8895011094         4171.7433731086      0.2910000000      12.3613059098      0.9424194193      0.0000000000
0.9040790925         3869.9885981595      0.2930000000      12.3751211486      0.9588794519      0.0000000000
0.9186363906         3593.7779735539      0.2950000000      12.3888695236      0.9753500730      0.0000000000
0.9331691060         3340.6725593580      0.2970000000      12.4025329016      0.9918268588      0.0000000000
0.9476734502         3108.4923819066      0.2990000000      12.4160952865      1.0083054768      0.0000000000
0.9621457496         2895.2875794786      0.3010000000      12.4295433061      1.0247816925      0.0000000000
0.9765823943         2699.2999990139      0.3030000000      12.4428607410      1.0412513117      0.0000000000
0.9909799513         2518.9677351401      0.3050000000      12.4560401853      1.0577103126      0.0000000000
1.0053349916         2352.8643922546      0.3070000000      12.4690647946      1.0741546460      0.0000000000
1.0196442651         2199.7229247823      0.3090000000      12.4819267505      1.0905804393      0.0000000000
1.0339046079         2058.3970159465      0.3110000000      12.4946171108      1.1069838900      0.0000000000
1.0481129514         1927.8518631930      0.3130000000      12.5071270634      1.1233612775      0.0000000000
1.0622663365         1807.1537445450      0.3150000000      12.5194491748      1.1397089802      0.0000000000
1.0763618709         1695.4530182522      0.3170000000      12.5315728741      1.1560234271      0.0000000000
1.0903968587         1591.9956414486      0.3190000000      12.5434985145      1.1723012508      0.0000000000
1.1043685841         1496.0801323745      0.3210000000      12.5552138700      1.1885390340      0.0000000000
1.1182745212         1407.0836135069      0.3230000000      12.5667170620      1.2047335580      0.0000000000
1.1321122121         1324.4362003713      0.3250000000      12.5780033251      1.2208816602      0.0000000000
1.1458792973         1247.6201563747      0.3270000000      12.5890683496      1.2369802704      0.0000000000
1.1595735171         1176.1650080502      0.3290000000      12.5999085626      1.2530264145      0.0000000000
1.1731927092         1109.6426315683      0.3310000000      12.6105209844      1.2690172120      0.0000000000
1.1867348121         1047.6636258427      0.3330000000      12.6209037208      1.2849498816      0.0000000000
1.2001978345          989.8704497666      0.3350000000      12.6310525558      1.3008217055      0.0000000000
1.2135799130          935.9404002197      0.3370000000      12.6409677843      1.3166300993      0.0000000000
1.2268792460          885.5758744950      0.3390000000      12.6506466777      1.3323725346      0.0000000000
1.2400941487          838.5073040655      0.3410000000      12.6600900699      1.3480466056      0.0000000000
1.2532229800          794.4841927838      0.3430000000      12.6692939784      1.3636499419      0.0000000000
1.2662642316          753.2811439315      0.3450000000      12.6782602042      1.3791803177      0.0000000000
1.2792164514          714.6892264998      0.3470000000      12.6869875233      1.3946355596      0.0000000000
1.2920782889          678.5182914765      0.3490000000      12.6954772044      1.4100136031      0.0000000000
1.3048484559          644.5923966695      0.3510000000      12.7037286352      1.4253124455      0.0000000000
1.3175257425          612.7498273536      0.3530000000      12.7117412420      1.4405301666      0.0000000000
1.3301090359          582.8433435790      0.3550000000      12.7195171622      1.4556649522      0.0000000000
1.3425972880          554.7366950698      0.3570000000      12.7270574521      1.4707150561      0.0000000000
1.3549895054          528.3032402999      0.3590000000      12.7343610002      1.4856787883      0.0000000000
1.3672847986          503.4282678102      0.3610000000      12.7414308682      1.5005545759      0.0000000000
1.3794823331          480.0051228301      0.3630000000      12.7482685014      1.5153409052      0.0000000000
1.3915813395          457.9351677234      0.3650000000      12.7548751601      1.5300363334      0.0000000000
1.4035811048          437.1268286278      0.3670000000      12.7612509821      1.5446394796      0.0000000000
1.4154810037          417.4967417037      0.3690000000      12.7673992713      1.5591490641      0.0000000000
1.4272804627          398.9672002596      0.3710000000      12.7733220861      1.5735638647      0.0000000000
1.4389789486          381.4653840912      0.3730000000      12.7790191125      1.5878827037      0.0000000000
1.4505760221          364.9255007789      0.3750000000      12.7844945816      1.6021045142      0.0000000000
1.4620712786          349.2855557837      0.3770000000      12.7897500438      1.6162282679      0.0000000000
1.4734643732          334.4882856391      0.3790000000      12.7947877621      1.6302530071      0.0000000000
1.4847550150          320.4805702383      0.3810000000      12.7996101714      1.6441778377      0.0000000000
1.4959429518          307.2125875155      0.3830000000      12.8042181261      1.6580019108      0.0000000000
1.5070280025          294.6389131146      0.3850000000      12.8086154011      1.6717244645      0.0000000000
1.5180100252          282.7169366650      0.3870000000      12.8128046210      1.6853447835      0.0000000000
1.5288889042          271.4063241003      0.3890000000      12.8167858944      1.6988621846      0.0000000000
1.5396646152          260.6712074184      0.3910000000      12.8205655718      1.7122760985      0.0000000000
1.5503371241          250.4762956780      0.3930000000      12.8241430120      1.7255859423      0.0000000000
1.5609064711          240.7898675491      0.3950000000      12.8275220344      1.7387912275      0.0000000000
1.5713727169          231.5816981230      0.3970000000      12.8307039186      1.7518914913      0.0000000000
1.5817359877          222.8244529323      0.3990000000      12.8336936919      1.7648863550      0.0000000000
1.5919964130          214.4915741553      0.4010000000      12.8364918282      1.7777754447      0.0000000000
1.6021541800          206.5589451548      0.4030000000      12.8391019397      1.7905584613      0.0000000000
1.6122095023          199.0038118073      0.4050000000      12.8415266527      1.8032351415      0.0000000000
1.6221626265          191.8048940768      0.4070000000      12.8437686966      1.8158052657      0.0000000000
1.6320138195          184.9420086703      0.4090000000      12.8458292930      1.8282686424      0.0000000000
1.6417634055          178.3970146613      0.4110000000      12.8477136429      1.8406251569      0.0000000000
1.6514117069          172.1521017085      0.4130000000      12.8494226607      1.8528746943      0.0000000000
1.6609590833          166.1908694182      0.4150000000      12.8509587161      1.8650171912      0.0000000000
1.6704059233          160.4980147105      0.4170000000      12.8523246603      1.8770526246      0.0000000000
1.6797526473          155.0593590215      0.4190000000      12.8535244168      1.8889810169      0.0000000000
1.6889996796          149.8611258307      0.4210000000      12.8545590583      1.9008023982      0.0000000000
1.6981474870          144.8908630453      0.4230000000      12.8554326524      1.9125168591      0.0000000000
1.7071965396          140.1364569886      0.4250000000      12.8561466293      1.9241244978      0.0000000000
1.7161473345          135.5866937291      0.4270000000      12.8567034762      1.9356254527      0.0000000000
1.7250003920          131.2311040054      0.4290000000      12.8571062646      1.9470198963      0.0000000000
1.7337562510          127.0598633547      0.4310000000      12.8573582237      1.9583080314      0.0000000000
1.7424154515          123.0633932890      0.4330000000      12.8574601297      1.9694900658      0.0000000000
1.7509785704          119.2331054749      0.4350000000      12.8574159903      1.9805662619      0.0000000000
1.7594461878          115.5606633793      0.4370000000      12.8572279473      1.9915368910      0.0000000000
1.7678188971          112.0382002777      0.4390000000      12.8568980113      2.0024022470      0.0000000000
1.7760973102          108.6583959024      0.4410000000      12.8564289990      2.0131626544      0.0000000000
1.7842820513          105.4143462089      0.4430000000      12.8558237067      2.0238184591      0.0000000000
1.7923737458          102.2993447574      0.4450000000      12.8550832748      2.0343700141      0.0000000000
1.8003730504           99.3074173045      0.4470000000      12.8542120442      2.0448177200      0.0000000000
1.8082806055           96.4324747071      0.4490000000      12.8532101794      2.0551619614      0.0000000000
1.8160970824           93.6691224062      0.4510000000      12.8520812639      2.0654031699      0.0000000000
1.8238231529           91.0121263259      0.4530000000      12.8508275581      2.0755417841      0.0000000000
1.8314594965           88.4565316127      0.4550000000      12.8494512713      2.0855782586      0.0000000000
1.8390067941           85.9975620157      0.4570000000      12.8479536189      2.0955130558      0.0000000000
1.8464657515           83.6309770936      0.4590000000      12.8463388089      2.1053466786      0.0000000000
1.8538370561           81.3523904010      0.4610000000      12.8446070092      2.1150796101      0.0000000000
1.8611214236           79.1579832865      0.4630000000      12.8427620884      2.1247123788      0.0000000000
1.8683195589           77.0439141422      0.4650000000      12.8408053826      2.1342455043      0.0000000000
1.8754321750           75.0065913888      0.4670000000      12.8387387436      2.1436795233      0.0000000000
1.8824599896           73.0426278043      0.4690000000      12.8365642402      2.1530149859      0.0000000000
1.8894037255           71.1488195737      0.4710000000      12.8342840547      2.1622524546      0.0000000000
1.8962641104           69.3221712534      0.4730000000      12.8319008920      2.1713925058      0.0000000000
1.9030418678           67.5597371075      0.4750000000      12.8294161703      2.1804357157      0.0000000000
1.9097377248           65.8587518030      0.4770000000      12.8268316495      2.1893826722      0.0000000000
1.9163524122           64.2166046655      0.4790000000      12.8241493379      2.1982339742      0.0000000000
1.9228866648           62.6308625334      0.4810000000      12.8213718447      2.2069902335      0.0000000000
1.9293412112           61.0991143483      0.4830000000      12.8185004267      2.2156520581      0.0000000000
1.9357167827           59.6191064369      0.4850000000      12.8155368353      2.2242200675      0.0000000000
1.9420141120           58.1887026106      0.4870000000      12.8124829335      2.2326948885      0.0000000000
1.9482339324           56.8058803204      0.4890000000      12.8093407617      2.2410771554      0.0000000000
1.9543769770           55.4687279046      0.4910000000      12.8061124629      2.2493675087      0.0000000000
1.9604439709           54.1753346232      0.4930000000      12.8027988196      2.2575665836      0.0000000000
1.9664356481           52.9239964590      0.4950000000      12.7994024315      2.2656750341      0.0000000000
1.9723527313           51.7129824697      0.4970000000      12.7959241221      2.2736935045      0.0000000000
1.9781959528           50.5407661874      0.4990000000      12.7923667304      2.2816226592      0.0000000000
1.9839660326           49.4057795747      0.5010000000      12.7887312369      2.2894631510      0.0000000000
1.9896636900           48.3065468316      0.5030000000      12.7850188427      2.2972156380      0.0000000000
1.9952896469           47.2417095359      0.5050000000      12.7812316731      2.3048807881      0.0000000000
2.0008446182           46.2099279139      0.5070000000      12.7773710257      2.3124592653      0.0000000000
2.0063293169           45.2099319070      0.5090000000      12.7734383495      2.3199517366      0.0000000000
2.0117444558           44.2405383112      0.5110000000      12.7694356666      2.3273588753      0.0000000000
2.0170907435           43.3006057415      0.5130000000      12.7653647299      2.3346813543      0.0000000000
2.0223688747           42.3889478971      0.5150000000      12.7612253714      2.3419198328      0.0000000000
2.0275795616           41.5046231971      0.5170000000      12.7570213136      2.3490750006      0.0000000000
2.0327234885           40.6465119303      0.5190000000      12.7527517393      2.3561475137      0.0000000000
2.0378013548           39.8137157885      0.5210000000      12.7484194111      2.3631380550      0.0000000000
2.0428138490           39.0053096885      0.5230000000      12.7440256893      2.3700472980      0.0000000000
2.0477616529           38.2203918759      0.5250000000      12.7395715555      2.3768759119      0.0000000000
2.0526454460           37.4581126699      0.5270000000      12.7350582560      2.3836245685      0.0000000000
