# M(M_sol)                 Lambda          n_Bc(fm^-3)         R(km)            m_B(M_sol)        m_Bquar/M_B
0.1523815975     27962320.5974917114      0.1330000000      20.8625186929      0.1525798183      0.0000000000
0.1559295583     24634262.9670902453      0.1350000000      20.3258190979      0.1561755417      0.0000000000
0.1596367527     21682434.6414960884      0.1370000000      19.8215610987      0.1599347642      0.0000000000
0.1635114286     19065208.3186397813      0.1390000000      19.3474663552      0.1638661301      0.0000000000
0.1675618587     16746161.4734956566      0.1410000000      18.9015251152      0.1679783399      0.0000000000
0.1717962980     14693133.7015785053      0.1430000000      18.4819484587      0.1722801102      0.0000000000
0.1762229654     12877551.1665402446      0.1450000000      18.0871331318      0.1767801558      0.0000000000
0.1808500113     11273901.6926326230      0.1470000000      17.7156308114      0.1814871598      0.0000000000
0.1856854947      9859304.7669619750      0.1490000000      17.3661230409      0.1864097515      0.0000000000
0.1907373346      8613207.5865121204      0.1510000000      17.0374034048      0.1915564588      0.0000000000
0.1960133034      7517109.7428791681      0.1530000000      16.7283576244      0.1969357038      0.0000000000
0.2015209835      6554341.3742192024      0.1550000000      16.4379513362      0.2025557595      0.0000000000
0.2072677466      5709900.8346061260      0.1570000000      16.1652196557      0.2084247306      0.0000000000
0.2132607143      4970288.5448800810      0.1590000000      15.9092574414      0.2145505145      0.0000000000
0.2195067471      4323375.5332434988      0.1610000000      15.6692120941      0.2209407910      0.0000000000
0.2260123999      3758282.0943410527      0.1630000000      15.4442765398      0.2276029783      0.0000000000
0.2327839167      3265271.5178187373      0.1650000000      15.2336863322      0.2345442277      0.0000000000
0.2398271868      2835646.6712357136      0.1670000000      15.0367136669      0.2417713799      0.0000000000
0.2471477422      2461659.3769464679      0.1690000000      14.8526657113      0.2492909616      0.0000000000
0.2547507330      2136422.6959169856      0.1710000000      14.6808810539      0.2571091616      0.0000000000
0.2626408965      1853830.5379810955      0.1730000000      14.5207279570      0.2652317974      0.0000000000
0.2708225539      1608483.2955073609      0.1750000000      14.3716028740      0.2736643125      0.0000000000
0.2792995873      1395616.3193770493      0.1770000000      14.2329282463      0.2824117508      0.0000000000
0.2880754286      1211035.9548545075      0.1790000000      14.1041518296      0.2914787448      0.0000000000
0.2971530486      1051058.9606640453      0.1810000000      13.9847457717      0.3008695024      0.0000000000
0.3065349386       912457.1468034168      0.1830000000      13.8742047335      0.3105877864      0.0000000000
0.3162231115       792407.0210988852      0.1850000000      13.7720462130      0.3206369132      0.0000000000
0.3262190910       688443.3665972158      0.1870000000      13.6778089726      0.3310197400      0.0000000000
0.3365239009       598417.8031984434      0.1890000000      13.5910527793      0.3417386500      0.0000000000
0.3471380649       520460.4986405168      0.1910000000      13.5113569668      0.3527955498      0.0000000000
0.3580616043       452946.8830055738      0.1930000000      13.4383205928      0.3641918637      0.0000000000
0.3692940357       394466.8895226991      0.1950000000      13.3715611796      0.3759285278      0.0000000000
0.3808343734       343798.2817622751      0.1970000000      13.3107144259      0.3880059882      0.0000000000
0.3926811312       299882.5177949247      0.1990000000      13.2554332529      0.4004241994      0.0000000000
0.4048323230       261803.7479576222      0.2010000000      13.2053873121      0.4131826202      0.0000000000
0.4172854712       228770.0650333310      0.2030000000      13.1602621166      0.4262802181      0.0000000000
0.4300376180       200097.2737090522      0.2050000000      13.1197590922      0.4397154762      0.0000000000
0.4430853248       175194.4072525392      0.2070000000      13.0835940186      0.4534863881      0.0000000000
0.4564246914       153551.3007889783      0.2090000000      13.0514972194      0.4675904723      0.0000000000
0.4700513583       134727.6297427555      0.2110000000      13.0232122858      0.4820247703      0.0000000000
0.4839605281       118343.4498770471      0.2130000000      12.9984962015      0.4967858631      0.0000000000
0.4981469750       104070.8858074031      0.2150000000      12.9771181486      0.5118698758      0.0000000000
0.5126050586        91627.0605243089      0.2170000000      12.9588592453      0.5272724875      0.0000000000
0.5273287470        80767.8605384035      0.2190000000      12.9435122984      0.5429889493      0.0000000000
0.5423116269        71282.5705804220      0.2210000000      12.9308805782      0.5590140904      0.0000000000
0.5575469249        62989.3016069122      0.2230000000      12.9207779741      0.5753423348      0.0000000000
0.5730275276        55730.9561558938      0.2250000000      12.9130280239      0.5919677171      0.0000000000
0.5887460018        49371.8237177492      0.2270000000      12.9074639496      0.6088838991      0.0000000000
0.6046946139        43794.6069969024      0.2290000000      12.9039278368      0.6260841852      0.0000000000
0.6208653508        38897.8709497601      0.2310000000      12.9022702413      0.6435615397      0.0000000000
0.6372499442        34593.8447624141      0.2330000000      12.9023499338      0.6613086074      0.0000000000
0.6538398901        30806.5505690365      0.2350000000      12.9040334402      0.6793177306      0.0000000000
0.6706264719        27470.1555781021      0.2370000000      12.9071945291      0.6975809687      0.0000000000
0.6876007841        24527.5969974002      0.2390000000      12.9117141687      0.7160901194      0.0000000000
0.7047537538        21929.3638382386      0.2410000000      12.9174799086      0.7348367381      0.0000000000
0.7220761621        19632.4676998889      0.2430000000      12.9243854934      0.7538121571      0.0000000000
0.7395586705        17599.5597992670      0.2450000000      12.9323310421      0.7730075102      0.0000000000
0.7571918348        15798.1533489010      0.2470000000      12.9412218367      0.7924137451      0.0000000000
0.7749661397        14199.9771002833      0.2490000000      12.9509692704      0.8120216570      0.0000000000
0.7928720077        12780.3988683037      0.2510000000      12.9614894494      0.8318218963      0.0000000000
0.8108998319        11517.9412947766      0.2530000000      12.9727035301      0.8518050018      0.0000000000
0.8290399755        10393.8593040165      0.2550000000      12.9845373312      0.8719613980      0.0000000000
0.8472828195         9391.7771633844      0.2570000000      12.9969210741      0.8922814450      0.0000000000
0.8656187649         8497.3757794397      0.2590000000      13.0097892555      0.9127554398      0.0000000000
0.8840382541         7698.1214380274      0.2610000000      13.0230803461      0.9333736389      0.0000000000
0.9025317895         6983.0326302495      0.2630000000      13.0367366228      0.9541262770      0.0000000000
0.9210899500         6342.4780600511      0.2650000000      13.0507039566      0.9750035854      0.0000000000
0.9397034061         5768.0021323372      0.2670000000      13.0649315450      0.9959958080      0.0000000000
0.9583629378         5252.1742559993      0.2690000000      13.0793719673      1.0170932211      0.0000000000
0.9770594464         4788.4573092222      0.2710000000      13.0939807616      1.0382861467      0.0000000000
0.9957839708         4371.0947661173      0.2730000000      13.1087165648      1.0595649711      0.0000000000
1.0145276949         3995.0116638332      0.2750000000      13.1235405311      1.0809201545      0.0000000000
1.0332819658         3655.7298851082      0.2770000000      13.1384166655      1.1023422514      0.0000000000
1.0520382989         3349.2931818150      0.2790000000      13.1533112192      1.1238219181      0.0000000000
1.0707883915         3072.2033234892      0.2810000000      13.1681929725      1.1453499297      0.0000000000
1.0895241302         2821.3636118693      0.2830000000      13.1830329169      1.1669171893      0.0000000000
1.1082375994         2594.0296351845      0.2850000000      13.1978041370      1.1885147403      0.0000000000
1.1269210869         2387.7671270419      0.2870000000      13.2124816153      1.2101337743      0.0000000000
1.1455670932         2200.4142920525      0.2890000000      13.2270423836      1.2317656438      0.0000000000
1.1641683342         2030.0495696380      0.2910000000      13.2414651351      1.2534018681      0.0000000000
1.1827177470         1874.9628184894      0.2930000000      13.2557302535      1.2750341422      0.0000000000
1.2012084943         1733.6310128443      0.2950000000      13.2698197792      1.2966543441      0.0000000000
1.2196339671         1604.6958286590      0.2970000000      13.2837171996      1.3182545412      0.0000000000
1.2379877870         1486.9449012827      0.2990000000      13.2974074689      1.3398269955      0.0000000000
1.2562638081         1379.2950165656      0.3010000000      13.3108768453      1.3613641687      0.0000000000
1.2744561180         1280.7771719401      0.3030000000      13.3241128173      1.3828587266      0.0000000000
1.2925590387         1190.5239296455      0.3050000000      13.3371041435      1.4043035430      0.0000000000
1.3105671259         1107.7577702717      0.3070000000      13.3498406189      1.4256917023      0.0000000000
1.3284751692         1031.7811971018      0.3090000000      13.3623131584      1.4470165022      0.0000000000
1.3462781899          961.9678341136      0.3110000000      13.3745136052      1.4682714553      0.0000000000
1.3639714402          897.7546498282      0.3130000000      13.3864347946      1.4894502907      0.0000000000
1.3815504005          838.6349579760      0.3150000000      13.3980703610      1.5105469544      0.0000000000
1.3990107776          784.1525096619      0.3170000000      13.4094148133      1.5315556100      0.0000000000
1.4163485011          733.8959335779      0.3190000000      13.4204634307      1.5524706380      0.0000000000
1.4335597206          687.4940398414      0.3210000000      13.4312121784      1.5732866355      0.0000000000
1.4506408021          644.6114912315      0.3230000000      13.4416577216      1.5939984156      0.0000000000
1.4675883238          604.9451987485      0.3250000000      13.4517973285      1.6146010044      0.0000000000
1.4843990729          568.2208043804      0.3270000000      13.4616288880      1.6350896415      0.0000000000
1.5010700399          534.1898720992      0.3290000000      13.4711508065      1.6554597757      0.0000000000
1.5175984157          502.6271455727      0.3310000000      13.4803620337      1.6757070641      0.0000000000
1.5339815854          473.3281835558      0.3330000000      13.4892619588      1.6958273684      0.0000000000
1.5502171245          446.1073799738      0.3350000000      13.4978504513      1.7158167527      0.0000000000
1.5663027942          420.7959417993      0.3370000000      13.5061277621      1.7356714805      0.0000000000
1.5822365336          397.2403410182      0.3390000000      13.5140945349      1.7553880084      0.0000000000
1.5980164586          375.3007545143      0.3410000000      13.5217517778      1.7749629874      0.0000000000
1.6136408545          354.8497457403      0.3430000000      13.5291008353      1.7943932558      0.0000000000
1.6291081701          335.7710546839      0.3450000000      13.5361432829      1.8136758354      0.0000000000
1.6444170140          317.9585578500      0.3470000000      13.5428810572      1.8328079290      0.0000000000
1.6595661482          301.3152825878      0.3490000000      13.5493163113      1.8517869149      0.0000000000
1.6745544832          285.7525368191      0.3510000000      13.5554514216      1.8706103432      0.0000000000
1.6893810728          271.1891628861      0.3530000000      13.5612890075      1.8892759314      0.0000000000
1.7040451087          257.5508134021      0.3550000000      13.5668318873      1.9077815602      0.0000000000
1.7185459150          244.7693308823      0.3570000000      13.5720829883      1.9261252683      0.0000000000
1.7328829438          232.7821921472      0.3590000000      13.5770454917      1.9443052495      0.0000000000
1.7470557696          221.5319929678      0.3610000000      13.5817226886      1.9623198465      0.0000000000
1.7610640839          210.9659680311      0.3630000000      13.5861179547      1.9801675474      0.0000000000
1.7749076911          201.0356216879      0.3650000000      13.5902348581      1.9978469808      0.0000000000
1.7885865028          191.6962999841      0.3670000000      13.5940769584      2.0153569115      0.0000000000
1.8021005343          182.9069063511      0.3690000000      13.5976480865      2.0326962367      0.0000000000
1.8154498983          174.6295419215      0.3710000000      13.6009519895      2.0498639801      0.0000000000
1.8286348013          166.8292600479      0.3730000000      13.6039925458      2.0668592887      0.0000000000
1.8416555391          159.4738067759      0.3750000000      13.6067737059      2.0836814282      0.0000000000
1.8545124919          152.5333877398      0.3770000000      13.6092994247      2.1003297781      0.0000000000
1.8672061209          145.9804654158      0.3790000000      13.6115737530      2.1168038286      0.0000000000
1.8797369636          139.7895691931      0.3810000000      13.6136007460      2.1331031757      0.0000000000
1.8921056297          133.9371336517      0.3830000000      13.6153845055      2.1492275169      0.0000000000
1.9043127973          128.4013103167      0.3850000000      13.6169290854      2.1651766477      0.0000000000
1.9163592095          123.1618723342      0.3870000000      13.6182386566      2.1809504575      0.0000000000
1.9282456703          118.2000444754      0.3890000000      13.6193173134      2.1965489255      0.0000000000
1.9399730412          113.4984130423      0.3910000000      13.6201691980      2.2119721177      0.0000000000
1.9515422373          109.0407975535      0.3930000000      13.6207984005      2.2272201814      0.0000000000
1.9629542251          104.8121674200      0.3950000000      13.6212090597      2.2422933440      0.0000000000
1.9742100182          100.7985466792      0.3970000000      13.6214052582      2.2571919075      0.0000000000
1.9853106748           96.9869261425      0.3990000000      13.6213910847      2.2719162462      0.0000000000
1.9962572940           93.3652016773      0.4010000000      13.6211705717      2.2864668024      0.0000000000
2.0070510143           89.9220906767      0.4030000000      13.6207477581      2.3008440842      0.0000000000
2.0176930095           86.6470789192      0.4050000000      13.6201266711      2.3150486617      0.0000000000
2.0281844864           83.5303595904      0.4070000000      13.6193112473      2.3290811639      0.0000000000
2.0385266830           80.5627836181      0.4090000000      13.6183054656      2.3429422759      0.0000000000
2.0487208647           77.7357975662      0.4110000000      13.6171131747      2.3566327356      0.0000000000
2.0587683237           75.0414234082      0.4130000000      13.6157383060      2.3701533322      0.0000000000
2.0686703745           72.4721907034      0.4150000000      13.6141846213      2.3835049010      0.0000000000
2.0784283540           70.0211180980      0.4170000000      13.6124559086      2.3966883232      0.0000000000
2.0880436183           67.6816685967      0.4190000000      13.6105559385      2.4097045226      0.0000000000
2.0975175407           65.4477232053      0.4210000000      13.6084883855      2.4225544621      0.0000000000
2.1068515100           63.3135465234      0.4230000000      13.6062568808      2.4352391428      0.0000000000
2.1160469291           61.2737627644      0.4250000000      13.6038650406      2.4477596010      0.0000000000
2.1251052122           59.3233290583      0.4270000000      13.6013164098      2.4601169054      0.0000000000
2.1340277850           57.4575152200      0.4290000000      13.5986144968      2.4723121566      0.0000000000
2.1428160808           55.6718775052      0.4310000000      13.5957627320      2.4843464828      0.0000000000
2.1514715414           53.9622408540      0.4330000000      13.5927645377      2.4962210404      0.0000000000
2.1599956138           52.3246838756      0.4350000000      13.5896232439      2.5079370095      0.0000000000
2.1683897499           50.7555175557      0.4370000000      13.5863421675      2.5194955940      0.0000000000
2.1766554052           49.2512711262      0.4390000000      13.5829245475      2.5308980192      0.0000000000
2.1847940371           47.8086785804      0.4410000000      13.5793735977      2.5421455294      0.0000000000
2.1928071040           46.4246612128      0.4430000000      13.5756924040      2.5532393874      0.0000000000
2.2006960649           45.0963230604      0.4450000000      13.5718841409      2.5641808727      0.0000000000
2.2084623771           43.8209308373      0.4470000000      13.5679517821      2.5749712791      0.0000000000
2.2161074961           42.5959066358      0.4490000000      13.5638983394      2.5856119142      0.0000000000
2.2236328747           41.4188211802      0.4510000000      13.5597267582      2.5961040979      0.0000000000
2.2310399618           40.2873784153      0.4530000000      13.5554399255      2.6064491608      0.0000000000
2.2383302019           39.1994118071      0.4550000000      13.5510406594      2.6166484429      0.0000000000
2.2455050341           38.1528745095      0.4570000000      13.5465317565      2.6267032927      0.0000000000
2.2525658917           37.1458292910      0.4590000000      13.5419159438      2.6366150661      0.0000000000
2.2595142011           36.1764480586      0.4610000000      13.5371958982      2.6463851247      0.0000000000
2.2663513818           35.2429998936      0.4630000000      13.5323742937      2.6560148357      0.0000000000
2.2730788449           34.3438454242      0.4650000000      13.5274536770      2.6655055698      0.0000000000
2.2796979936           33.4774335779      0.4670000000      13.5224365846      2.6748587012      0.0000000000
2.2862102220           32.6422952683      0.4690000000      13.5173255097      2.6840756059      0.0000000000
2.2926169153           31.8370390638      0.4710000000      13.5121229193      2.6931576621      0.0000000000
2.2989194481           31.0603439387      0.4730000000      13.5068311908      2.7021062476      0.0000000000
2.3051191854           30.3109592553      0.4750000000      13.5014526519      2.7109227403      0.0000000000
2.3112174815           29.5876965114      0.4770000000      13.4959896265      2.7196085171      0.0000000000
2.3172156800           28.8894301612      0.4790000000      13.4904443784      2.7281649533      0.0000000000
2.3231151127           28.2150892977      0.4810000000      13.4848190956      2.7365934215      0.0000000000
2.3289171008           27.5636578539      0.4830000000      13.4791159661      2.7448952920      0.0000000000
2.3346229528           26.9341703190      0.4850000000      13.4733371101      2.7530719306      0.0000000000
2.3402339660           26.3257091365      0.4870000000      13.4674846119      2.7611246996      0.0000000000
2.3457514249           25.7374000647      0.4890000000      13.4615604850      2.7690549564      0.0000000000
2.3511766020           25.1684148384      0.4910000000      13.4555667775      2.7768640531      0.0000000000
