# M(M_sol)                 Lambda          n_Bc(fm^-3)         R(km)            m_B(M_sol)        m_Bquar/M_B
0.1506381264     48251193.7584261075      0.0910000000      23.9525270167      0.1508535775      0.0000000000
0.1568212614     39681581.8905120715      0.0930000000      22.9312530992      0.1571210035      0.0000000000
0.1631244129     32882281.7914928235      0.0950000000      22.0585620230      0.1635155312      0.0000000000
0.1695403210     27427805.3086446412      0.0970000000      21.3059405641      0.1700300567      0.0000000000
0.1760625529     23012091.4836272113      0.0990000000      20.6515840775      0.1766582989      0.0000000000
0.1826853922     19409389.3374467306      0.1010000000      20.0785513987      0.1833946893      0.0000000000
0.1894037595     16449898.8565127775      0.1030000000      19.5734946011      0.1902342936      0.0000000000
0.1962131430     14003916.8057254832      0.1050000000      19.1257630157      0.1971727429      0.0000000000
0.2031095446     11971125.0627170224      0.1070000000      18.7267630524      0.2042061810      0.0000000000
0.2100894334     10273108.5914833564      0.1090000000      18.3694898634      0.2113312184      0.0000000000
0.2171497093      8848035.0108616743      0.1110000000      18.0481813166      0.2185448970      0.0000000000
0.2242697214      7649514.7461959170      0.1130000000      17.7587476713      0.2258262943      0.0000000000
0.2313139511      6654073.2034774693      0.1150000000      17.5015722266      0.2330367807      0.0000000000
0.2383398123      5814618.9260206586      0.1170000000      17.2698975544      0.2402349801      0.0000000000
0.2453705369      5100375.1437657196      0.1190000000      17.0595453382      0.2474446647      0.0000000000
0.2524160085      4488892.5334360329      0.1210000000      16.8675296554      0.2546759873      0.0000000000
0.2594822622      3962705.9303718079      0.1230000000      16.6914867979      0.2619351839      0.0000000000
0.2665736742      3507894.5680350033      0.1250000000      16.5294786426      0.2692268075      0.0000000000
0.2736937765      3113202.3483820218      0.1270000000      16.3798848638      0.2765545601      0.0000000000
0.2808456382      2769434.7242757524      0.1290000000      16.2413346839      0.2839216807      0.0000000000
0.2880320568      2469018.3049352299      0.1310000000      16.1126564505      0.2913311414      0.0000000000
0.2952556703      2205673.1349861277      0.1330000000      15.9928419115      0.2987857617      0.0000000000
0.3025190214      1974158.9951641001      0.1350000000      15.8810173198      0.3062882740      0.0000000000
0.3098245957      1770081.5782248622      0.1370000000      15.7764215124      0.3138413628      0.0000000000
0.3171748474      1589736.7673361134      0.1390000000      15.6783886514      0.3214476913      0.0000000000
0.3245722116      1429988.8050949965      0.1410000000      15.5863330855      0.3291099139      0.0000000000
0.3320191144      1288171.6160842748      0.1430000000      15.4997378300      0.3368306872      0.0000000000
0.3395179752      1162010.1357350072      0.1450000000      15.4181450196      0.3446126714      0.0000000000
0.3470712114      1049555.6046771810      0.1470000000      15.3411477789      0.3524585370      0.0000000000
0.3546812337       949133.2914848961      0.1490000000      15.2683831736      0.3603709583      0.0000000000
0.3623504470       859299.0336431983      0.1510000000      15.1995266998      0.3683526159      0.0000000000
0.3700812456       778804.1854646701      0.1530000000      15.1342876270      0.3764061910      0.0000000000
0.3778760120       706565.3165870520      0.1550000000      15.0724042521      0.3845343647      0.0000000000
0.3857371077       641640.4990454512      0.1570000000      15.0136410600      0.3927398085      0.0000000000
0.3936668805       583207.9508545317      0.1590000000      14.9577850240      0.4010251920      0.0000000000
0.4016676285       530549.5913553792      0.1610000000      14.9046437042      0.4093931455      0.0000000000
0.4097416376       483035.8635251578      0.1630000000      14.8540421848      0.4178462992      0.0000000000
0.4178911482       440113.8745301071      0.1650000000      14.8058216554      0.4263872484      0.0000000000
0.4261183543       401296.8590366585      0.1670000000      14.7598372174      0.4350185530      0.0000000000
0.4344254026       366155.4728481260      0.1690000000      14.7159569417      0.4437427360      0.0000000000
0.4428143819       334310.1289549799      0.1710000000      14.6740600175      0.4525622728      0.0000000000
0.4512873194       305424.6399623207      0.1730000000      14.6340357192      0.4614795871      0.0000000000
0.4598461755       279200.7118421066      0.1750000000      14.5957825665      0.4704970456      0.0000000000
0.4684928367       255373.1647692252      0.1770000000      14.5592070995      0.4796169499      0.0000000000
0.4772291104       233705.8784297247      0.1790000000      14.5242233188      0.4888415314      0.0000000000
0.4860567209       213988.1831573963      0.1810000000      14.4907516428      0.4981729470      0.0000000000
0.4949772968       196031.9798203601      0.1830000000      14.4587187005      0.5076132650      0.0000000000
0.5039923843       179668.8993276772      0.1850000000      14.4280563494      0.5171644792      0.0000000000
0.5131034178       164748.1038754274      0.1870000000      14.3987013744      0.5268284778      0.0000000000
0.5223117300       151134.2535868044      0.1890000000      14.3705949183      0.5366070533      0.0000000000
0.5316185418       138705.7692918774      0.1910000000      14.3436820333      0.5465018914      0.0000000000
0.5410249620       127353.2672115845      0.1930000000      14.3179115574      0.5565145707      0.0000000000
0.5505319781       116978.2112625464      0.1950000000      14.2932352913      0.5666465521      0.0000000000
0.5601404558       107491.7855982458      0.1970000000      14.2696083015      0.5768991777      0.0000000000
0.5698511327        98813.7918403923      0.1990000000      14.2469880925      0.5872736635      0.0000000000
0.5796646163        90871.7764946509      0.2010000000      14.2253346796      0.5977710968      0.0000000000
0.5895813806        83600.1902534240      0.2030000000      14.2046103154      0.6083924318      0.0000000000
0.5996017622        76939.6878083873      0.2050000000      14.1847791134      0.6191384848      0.0000000000
0.6097259591        70836.4917557733      0.2070000000      14.1658071462      0.6300099319      0.0000000000
0.6199540277        65241.8278513471      0.2090000000      14.1476620716      0.6410073053      0.0000000000
0.6302858805        60111.4294532718      0.2110000000      14.1303130212      0.6521309892      0.0000000000
0.6407212860        55405.0687319838      0.2130000000      14.1137304199      0.6633812200      0.0000000000
0.6512598663        51086.2021713358      0.2150000000      14.0978861269      0.6747580817      0.0000000000
0.6619010976        47121.5624113605      0.2170000000      14.0827529248      0.6862615058      0.0000000000
0.6726443081        43480.8911432502      0.2190000000      14.0683047759      0.6978912679      0.0000000000
0.6834886796        40136.6197981736      0.2210000000      14.0545164645      0.7096469887      0.0000000000
0.6944332479        37063.6275879394      0.2230000000      14.0413637228      0.7215281328      0.0000000000
0.7054769038        34239.0057737754      0.2250000000      14.0288230595      0.7335340088      0.0000000000
0.7166183931        31641.8654251047      0.2270000000      14.0168717032      0.7456637683      0.0000000000
0.7278563190        29253.1380519551      0.2290000000      14.0054875188      0.7579164071      0.0000000000
0.7391891454        27055.4125605003      0.2310000000      13.9946491014      0.7702907675      0.0000000000
0.7506151971        25032.7883612367      0.2330000000      13.9843355045      0.7827855375      0.0000000000
0.7621326644        23170.7347552132      0.2350000000      13.9745264518      0.7953992544      0.0000000000
0.7737396052        21455.9663476229      0.2370000000      13.9652020342      0.8081303057      0.0000000000
0.7854339491        19876.3400845201      0.2390000000      13.9563429760      0.8209769326      0.0000000000
0.7972135014        18420.7440012135      0.2410000000      13.9479303668      0.8339372327      0.0000000000
0.8090759460        17079.0114758207      0.2430000000      13.9399457275      0.8470091621      0.0000000000
0.8210188516        15841.8372326671      0.2450000000      13.9323710375      0.8601905414      0.0000000000
0.8330396746        14700.7044092802      0.2470000000      13.9251886761      0.8734790565      0.0000000000
0.8451357662        13647.8087764983      0.2490000000      13.9183814256      0.8868722661      0.0000000000
0.8573043749        12676.0047690867      0.2510000000      13.9119323753      0.9003676030      0.0000000000
0.8695426544        11778.7438371548      0.2530000000      13.9058250542      0.9139623815      0.0000000000
0.8818476676        10950.0242737137      0.2550000000      13.9000433305      0.9276538009      0.0000000000
0.8942163937        10184.3446890910      0.2570000000      13.8945714315      0.9414389514      0.0000000000
0.9066457319         9476.6602852138      0.2590000000      13.8893939356      0.9553148185      0.0000000000
0.9191325096         8822.3446187968      0.2610000000      13.8844957339      0.9692782896      0.0000000000
0.9316734878         8217.1536045029      0.2630000000      13.8798621656      0.9833261601      0.0000000000
0.9442653668         7657.1930738955      0.2650000000      13.8754787354      0.9974551378      0.0000000000
0.9569047929         7138.8898571244      0.2670000000      13.8713315254      1.0116618506      0.0000000000
0.9695883648         6658.9620279256      0.2690000000      13.8674067339      1.0259428514      0.0000000000
0.9823126387         6214.3990293863      0.2710000000      13.8636910541      1.0402946241      0.0000000000
0.9950741362         5802.4337998592      0.2730000000      13.8601714556      1.0547135916      0.0000000000
1.0078693494         5420.5258713169      0.2750000000      13.8568352404      1.0691961196      0.0000000000
1.0206947471         5066.3408720815      0.2770000000      13.8536700956      1.0837385250      0.0000000000
1.0335467813         4737.7334589557      0.2790000000      13.8506639984      1.0983370804      0.0000000000
1.0464218926         4432.7317535816      0.2810000000      13.8478052949      1.1129880214      0.0000000000
1.0593165166         4149.5226608490      0.2830000000      13.8450826919      1.1276875528      0.0000000000
1.0722270889         3886.4392198555      0.2850000000      13.8424851414      1.1424318533      0.0000000000
1.0851500516         3641.9476328514      0.2870000000      13.8400020472      1.1572170834      0.0000000000
1.0980818574         3414.6371970450      0.2890000000      13.8376230903      1.1720393896      0.0000000000
1.1110189764         3203.2090026100      0.2910000000      13.8353382587      1.1868949114      0.0000000000
1.1239578999         3006.4680241796      0.2930000000      13.8331379746      1.2017797862      0.0000000000
1.1368951457         2823.3134332094      0.2950000000      13.8310128468      1.2166901547      0.0000000000
1.1498272629         2652.7315187098      0.2970000000      13.8289539517      1.2316221670      0.0000000000
1.1627508359         2493.7885299059      0.2990000000      13.8269525630      1.2465719865      0.0000000000
1.1756624893         2345.6237453367      0.3010000000      13.8250004176      1.2615357964      0.0000000000
1.1885588912         2207.4439269138      0.3030000000      13.8230894277      1.2765098030      0.0000000000
1.2014367575         2078.5174853555      0.3050000000      13.8212119251      1.2914902414      0.0000000000
1.2142928565         1958.1698633617      0.3070000000      13.8193604700      1.3064733807      0.0000000000
1.2271240074         1845.7786648844      0.3090000000      13.8175280420      1.3214555230      0.0000000000
1.2399270906         1740.7693868704      0.3110000000      13.8157077652      1.3364330150      0.0000000000
1.2526990458         1642.6117563535      0.3130000000      13.8138932231      1.3514022472      0.0000000000
1.2654368757         1550.8161190935      0.3150000000      13.8120781631      1.3663596579      0.0000000000
1.2781376490         1464.9301120009      0.3170000000      13.8102566799      1.3813017375      0.0000000000
1.2907985019         1384.5356928002      0.3190000000      13.8084231513      1.3962250309      0.0000000000
1.3034166406         1309.2465689321      0.3210000000      13.8065721943      1.4111261407      0.0000000000
1.3159893427         1238.7054109158      0.3230000000      13.8046987235      1.4260017298      0.0000000000
1.3285139589         1172.5817597527      0.3250000000      13.8027978988      1.4408485240      0.0000000000
1.3409879146         1110.5698652992      0.3270000000      13.8008651631      1.4556633143      0.0000000000
1.3534087108         1052.3867221963      0.3290000000      13.7988961523      1.4704429588      0.0000000000
1.3657739252          997.7701788692      0.3310000000      13.7968868040      1.4851843852      0.0000000000
1.3780812125          946.4775911041      0.3330000000      13.7948332690      1.4998845912      0.0000000000
1.3903283061          898.2840181072      0.3350000000      13.7927319213      1.5145406473      0.0000000000
1.4025130173          852.9809156619      0.3370000000      13.7905793837      1.5291496978      0.0000000000
1.4146332362          810.3750753459      0.3390000000      13.7883724351      1.5437089609      0.0000000000
1.4266869322          770.2870644659      0.3410000000      13.7861081430      1.5582157316      0.0000000000
1.4386721529          732.5505274864      0.3430000000      13.7837837236      1.5726673807      0.0000000000
1.4505870248          697.0109834346      0.3450000000      13.7813966166      1.5870613561      0.0000000000
1.4624297527          663.5249889584      0.3470000000      13.7789444111      1.6013951833      0.0000000000
1.4741986192          631.9592513388      0.3490000000      13.7764249239      1.6156664661      0.0000000000
1.4858919842          602.1899660069      0.3510000000      13.7738361328      1.6298728858      0.0000000000
1.4975082845          574.1019346726      0.3530000000      13.7711761927      1.6440122021      0.0000000000
1.5090460322          547.5881083434      0.3550000000      13.7684433936      1.6580822526      0.0000000000
1.5205038150          522.5488298305      0.3570000000      13.7656362151      1.6720809528      0.0000000000
1.5318802942          498.8913430423      0.3590000000      13.7627532751      1.6860062957      0.0000000000
1.5431742044          476.5293106158      0.3610000000      13.7597933324      1.6998563512      0.0000000000
1.5543843517          455.3822948244      0.3630000000      13.7567552788      1.7136292655      0.0000000000
1.5655096143          435.3752712250      0.3650000000      13.7536381700      1.7273232625      0.0000000000
1.5765489367          416.4384226421      0.3670000000      13.7504411622      1.7409366372      0.0000000000
1.5875013344          398.5065301910      0.3690000000      13.7471635255      1.7544677625      0.0000000000
1.5983658888          381.5188230369      0.3710000000      13.7438046692      1.7679150835      0.0000000000
1.6091417468          365.4185267689      0.3730000000      13.7403641096      1.7812771184      0.0000000000
1.6198281192          350.1526425988      0.3750000000      13.7368414581      1.7945524562      0.0000000000
1.6304242791          335.6716908547      0.3770000000      13.7332364319      1.8077397566      0.0000000000
1.6409295610          321.9294045326      0.3790000000      13.7295488405      1.8208377486      0.0000000000
1.6513433586          308.8825500832      0.3810000000      13.7257785954      1.8338452293      0.0000000000
1.6616651236          296.4907022490      0.3830000000      13.7219256761      1.8467610625      0.0000000000
1.6718943644          284.7159967426      0.3850000000      13.7179901643      1.8595841780      0.0000000000
1.6820306438          273.5230582820      0.3870000000      13.7139722053      1.8723135697      0.0000000000
1.6920735781          262.8787366953      0.3890000000      13.7098720266      1.8849482945      0.0000000000
1.7020228355          252.7519582098      0.3910000000      13.7056898966      1.8974874710      0.0000000000
1.7118781340          243.1136526228      0.3930000000      13.7014261984      1.9099302780      0.0000000000
1.7216392406          233.9365212425      0.3950000000      13.6970813343      1.9222759534      0.0000000000
1.7313059689          225.1950100134      0.3970000000      13.6926557847      1.9345237925      0.0000000000
1.7408781784          216.8651103427      0.3990000000      13.6881500826      1.9466731468      0.0000000000
1.7503557723          208.9243146790      0.4010000000      13.6835648030      1.9587234222      0.0000000000
1.7597386963          201.3514702501      0.4030000000      13.6789005712      1.9706740782      0.0000000000
1.7690269370          194.1267327015      0.4050000000      13.6741580655      1.9825246259      0.0000000000
1.7782205206          187.2314381182      0.4070000000      13.6693379909      1.9942746268      0.0000000000
1.7873195111          180.6480566768      0.4090000000      13.6644411056      2.0059236916      0.0000000000
1.7963240092          174.3600951052      0.4110000000      13.6594681917      2.0174714783      0.0000000000
1.8052341504          168.3520498386      0.4130000000      13.6544200693      2.0289176913      0.0000000000
1.8140501044          162.6093235354      0.4150000000      13.6492975926      2.0402620795      0.0000000000
1.8227720729          157.1181707706      0.4170000000      13.6441016347      2.0515044357      0.0000000000
1.8314002862          151.8656650123      0.4190000000      13.6388331023      2.0626445910      0.0000000000
1.8399350117          146.8396073709      0.4210000000      13.6334929292      2.0736824270      0.0000000000
1.8483765377          142.0285217471      0.4230000000      13.6280820451      2.0846178548      0.0000000000
1.8567251824          137.4215694126      0.4250000000      13.6226014288      2.0954508271      0.0000000000
1.8649812897          133.0085408905      0.4270000000      13.6170520709      2.1061813333      0.0000000000
1.8731452281          128.7798000701      0.4290000000      13.6114349672      2.1168093977      0.0000000000
1.8812173896          124.7262563989      0.4310000000      13.6057511242      2.1273350794      0.0000000000
1.8891981889          120.8393214651      0.4330000000      13.6000015848      2.1377584699      0.0000000000
1.8970880616          117.1108899983      0.4350000000      13.5941873620      2.1480796929      0.0000000000
1.9048874636          113.5332903103      0.4370000000      13.5883095252      2.1582989023      0.0000000000
1.9125968700          110.0992912619      0.4390000000      13.5823691202      2.1684162815      0.0000000000
1.9202167738          106.8020431848      0.4410000000      13.5763671968      2.1784320419      0.0000000000
1.9277476853          103.6350745695      0.4430000000      13.5703048192      2.1883464221      0.0000000000
1.9351901310          100.5922501206      0.4450000000      13.5641830789      2.1981596870      0.0000000000
1.9425446523           97.6677753481      0.4470000000      13.5580030197      2.2078721259      0.0000000000
1.9498118050           94.8561623345      0.4490000000      13.5517657260      2.2174840523      0.0000000000
