# M(M_sol)                 Lambda          n_Bc(fm^-3)         R(km)            m_B(M_sol)        m_Bquar/M_B
0.1548003135     39267373.0606125072      0.0980000000      22.8161624742      0.1550558111      0.0000000000
0.1602832159     33104739.8379724920      0.1000000000      22.0125341673      0.1606152187      0.0000000000
0.1658625152     28055045.2411004640      0.1020000000      21.3080127156      0.1662766941      0.0000000000
0.1715343945     23886548.9279059470      0.1040000000      20.6863051764      0.1720365625      0.0000000000
0.1772955560     20423441.4423082024      0.1060000000      20.1344253565      0.1778916695      0.0000000000
0.1831431629     17530119.0190880932      0.1080000000      19.6419043803      0.1838393231      0.0000000000
0.1890747989     15100600.3650099784      0.1100000000      19.2002148261      0.1898772545      0.0000000000
0.1950884306     13051141.6056340728      0.1120000000      18.8023479232      0.1960035807      0.0000000000
0.2011230363     11330429.9800566752      0.1140000000      18.4458042129      0.2021562487      0.0000000000
0.2071256070      9888770.3021777514      0.1160000000      18.1272827180      0.2082811863      0.0000000000
0.2131436184      8663687.4982204828      0.1180000000      17.8389577488      0.2144268066      0.0000000000
0.2191897170      7615347.1977009438      0.1200000000      17.5763020559      0.2206060686      0.0000000000
0.2252707046      6713436.3176863911      0.1220000000      17.3358717884      0.2268259936      0.0000000000
0.2313912756      5933983.7007654132      0.1240000000      17.1148894658      0.2330914685      0.0000000000
0.2375551484      5257678.6519345799      0.1260000000      16.9110585824      0.2394063968      0.0000000000
0.2437655256      4668769.0032232059      0.1280000000      16.7224486402      0.2457741669      0.0000000000
0.2500253246      4154290.7168392655      0.1300000000      16.5474201174      0.2521978865      0.0000000000
0.2563372963      3703492.4342336045      0.1320000000      16.3845680879      0.2586805036      0.0000000000
0.2627040956      3307402.2116615423      0.1340000000      16.2326802134      0.2652248787      0.0000000000
0.2691283219      2958490.6738478732      0.1360000000      16.0907045480      0.2718338262      0.0000000000
0.2756125447      2650407.2936156620      0.1380000000      15.9577230060      0.2785101401      0.0000000000
0.2821593132      2377770.7514138767      0.1400000000      15.8329304481      0.2852566050      0.0000000000
0.2887711711      2136002.5256070900      0.1420000000      15.7156179343      0.2920760107      0.0000000000
0.2954506566      1921192.4596407777      0.1440000000      15.6051593017      0.2989711525      0.0000000000
0.3022003041      1729987.6626457830      0.1460000000      15.5009986644      0.3059448333      0.0000000000
0.3090226435      1559504.3135439903      0.1480000000      15.4026413338      0.3129998634      0.0000000000
0.3159201990      1407253.7558953874      0.1500000000      15.3096456514      0.3201390587      0.0000000000
0.3228954834      1271082.0004069551      0.1520000000      15.2216161338      0.3273652361      0.0000000000
0.3299509958      1149119.2959058296      0.1540000000      15.1381976547      0.3346812103      0.0000000000
0.3370892238      1039738.2609571001      0.1560000000      15.0590703428      0.3420897969      0.0000000000
0.3443126086       941518.7566506135      0.1580000000      14.9839456286      0.3495937764      0.0000000000
0.3516235840       853218.8057610852      0.1600000000      14.9125625282      0.3571959344      0.0000000000
0.3590245423       773749.1131633729      0.1620000000      14.8446842330      0.3648990271      0.0000000000
0.3665178319       702152.6136954394      0.1640000000      14.7800952793      0.3727057782      0.0000000000
0.3741057559       637586.5808398215      0.1660000000      14.7185997737      0.3806188780      0.0000000000
0.3817905639       579307.3107845762      0.1680000000      14.6600186504      0.3886409749      0.0000000000
0.3895744445       526657.4423754824      0.1700000000      14.6041881740      0.3967746672      0.0000000000
0.3974595218       479054.5173414133      0.1720000000      14.5509580873      0.4050225005      0.0000000000
0.4054478468       435982.0170325789      0.1740000000      14.5001905512      0.4133869572      0.0000000000
0.4135413908       396980.7775368194      0.1760000000      14.4517584958      0.4218704512      0.0000000000
0.4217420425       361642.0345435948      0.1780000000      14.4055447242      0.4304753231      0.0000000000
0.4300515922       329601.4508090070      0.1800000000      14.3614409297      0.4392038251      0.0000000000
0.4384717511       300533.6581580458      0.1820000000      14.3193465985      0.4480581400      0.0000000000
0.4470041110       274147.8455695608      0.1840000000      14.2791684923      0.4570403389      0.0000000000
0.4556501607       250183.6303879197      0.1860000000      14.2408198043      0.4661523983      0.0000000000
0.4644112744       228407.6875439692      0.1880000000      14.2042195722      0.4753961874      0.0000000000
0.4732887076       208610.6134227070      0.1900000000      14.1692921183      0.4847734639      0.0000000000
0.4822835915       190604.2535422981      0.1920000000      14.1359663587      0.4942858668      0.0000000000
0.4913969284       174219.4804034351      0.1940000000      14.1041757979      0.5039349115      0.0000000000
0.5006295872       159303.9762164290      0.1960000000      14.0738576755      0.5137219851      0.0000000000
0.5099822977       145720.5478455152      0.1980000000      14.0449526634      0.5236483386      0.0000000000
0.5194556497       133345.4506775503      0.2000000000      14.0174048622      0.5337150859      0.0000000000
0.5290500874       122066.9927159278      0.2020000000      13.9911611802      0.5439231973      0.0000000000
0.5387659060       111784.3002641067      0.2040000000      13.9661710999      0.5542734950      0.0000000000
0.5486032512       102406.1661047219      0.2060000000      13.9423866484      0.5647666517      0.0000000000
0.5585621136        93850.1247182470      0.2080000000      13.9197619914      0.5754031833      0.0000000000
0.5686423297        86041.4952000701      0.2100000000      13.8982531937      0.5861834500      0.0000000000
0.5788435778        78912.6728437978      0.2120000000      13.8778182771      0.5971076500      0.0000000000
0.5891653800        72402.3747046801      0.2140000000      13.8584169669      0.6081758213      0.0000000000
0.5996070980        66455.0411722008      0.2160000000      13.8400103324      0.6193878356      0.0000000000
0.6101679351        61020.2880324839      0.2180000000      13.8225610742      0.6307433995      0.0000000000
0.6208469360        56052.3697214060      0.2200000000      13.8060330132      0.6422420532      0.0000000000
0.6316429875        51509.7688325022      0.2220000000      13.7903913151      0.6538831700      0.0000000000
0.6425548184        47354.7678431114      0.2240000000      13.7756021439      0.6656659549      0.0000000000
0.6535810036        43553.0974987961      0.2260000000      13.7616327969      0.6775894475      0.0000000000
0.6647199632        40073.6077309683      0.2280000000      13.7484514926      0.6896525201      0.0000000000
0.6759699662        36887.9819222328      0.2300000000      13.7360273428      0.7018538800      0.0000000000
0.6873291338        33970.4538415511      0.2320000000      13.7243303315      0.7141920721      0.0000000000
0.6987954421        31297.5892963687      0.2340000000      13.7133313296      0.7266654800      0.0000000000
0.7103667245        28848.0621752647      0.2360000000      13.7030018596      0.7392723274      0.0000000000
0.7220406775        26602.4540045854      0.2380000000      13.6933141726      0.7520106831      0.0000000000
0.7338148644        24543.0866274955      0.2400000000      13.6842413773      0.7648784636      0.0000000000
0.7456867191        22653.8594580232      0.2420000000      13.6757571227      0.7778734353      0.0000000000
0.7576535516        20920.1038347940      0.2440000000      13.6678357092      0.7909932200      0.0000000000
0.7697125536        19328.4544975558      0.2460000000      13.6604521471      0.8042352988      0.0000000000
0.7818608034        17866.7299783998      0.2480000000      13.6535820449      0.8175970168      0.0000000000
0.7940952719        16523.8257331353      0.2500000000      13.6472015469      0.8310755876      0.0000000000
0.8064128277        15289.6154351590      0.2520000000      13.6412874726      0.8446680983      0.0000000000
0.8188102450        14154.8642546528      0.2540000000      13.6358171667      0.8583715161      0.0000000000
0.8312842080        13111.1495465561      0.2560000000      13.6307685694      0.8721826927      0.0000000000
0.8438313182        12150.7851723789      0.2580000000      13.6261201775      0.8860983706      0.0000000000
0.8564481014        11266.7558794283      0.2600000000      13.6218510481      0.9001151895      0.0000000000
0.8691310130        10452.6593540635      0.2620000000      13.6179407700      0.9142296918      0.0000000000
0.8818764461         9702.6492983424      0.2640000000      13.6143695244      0.9284383298      0.0000000000
0.8946807370         9011.3877395272      0.2660000000      13.6111179483      0.9427374707      0.0000000000
0.9075401730         8373.9972653614      0.2680000000      13.6081672941      0.9571234051      0.0000000000
0.9204509984         7786.0224183232      0.2700000000      13.6054993291      0.9715923519      0.0000000000
0.9334094212         7243.3919803678      0.2720000000      13.6030962968      0.9861404654      0.0000000000
0.9464116201         6742.3841349151      0.2740000000      13.6009410206      1.0007638421      0.0000000000
0.9594537512         6279.5951661458      0.2760000000      13.5990168393      1.0154585279      0.0000000000
0.9725319540         5851.9127143864      0.2780000000      13.5973075848      1.0302205235      0.0000000000
0.9856423578         5456.4895031394      0.2800000000      13.5957976192      1.0450457916      0.0000000000
0.9987810878         5090.7206017799      0.2820000000      13.5944717837      1.0599302630      0.0000000000
1.0119442721         4752.2206742967      0.2840000000      13.5933154256      1.0748698441      0.0000000000
1.0251280461         4438.8067046722      0.2860000000      13.5923144010      1.0898604214      0.0000000000
1.0383285597         4148.4790455708      0.2880000000      13.5914550711      1.1048978695      0.0000000000
1.0515419819         3879.4056714180      0.2900000000      13.5907242558      1.1199780559      0.0000000000
1.0647645066         3629.9076110490      0.2920000000      13.5901092537      1.1350968476      0.0000000000
1.0779923572         3398.4464317546      0.2940000000      13.5895978472      1.1502501161      0.0000000000
1.0912217922         3183.6110346921      0.2960000000      13.5891782874      1.1654337438      0.0000000000
1.1044491089         2984.1071053224      0.2980000000      13.5888392682      1.1806436285      0.0000000000
1.1176706493         2798.7470539589      0.3000000000      13.5885699200      1.1958756895      0.0000000000
1.1308828029         2626.4407961151      0.3020000000      13.5883598712      1.2111258723      0.0000000000
1.1440820118         2466.1873879496      0.3040000000      13.5881991399      1.2263901529      0.0000000000
1.1572647733         2317.0676863058      0.3060000000      13.5880781731      1.2416645428      0.0000000000
1.1704276441         2178.2369664057      0.3080000000      13.5879878401      1.2569450934      0.0000000000
1.1835672445         2048.9188019937      0.3100000000      13.5879194129      1.2722279007      0.0000000000
1.1966802578         1928.3992444392      0.3120000000      13.5878646081      1.2875091063      0.0000000000
1.2097634377         1816.0217141356      0.3140000000      13.5878154580      1.3027849054      0.0000000000
1.2228136082         1711.1819520438      0.3160000000      13.5877644275      1.3180515476      0.0000000000
1.2358276675         1613.3236759792      0.3180000000      13.5877043501      1.3333053424      0.0000000000
1.2488025851         1521.9347206153      0.3200000000      13.5876284065      1.3485426558      0.0000000000
1.2617354111         1436.5431111562      0.3220000000      13.5875301085      1.3637599221      0.0000000000
1.2746232730         1356.7139901830      0.3240000000      13.5874033647      1.3789536411      0.0000000000
1.2874633865         1282.0463237472      0.3260000000      13.5872423969      1.3941203912      0.0000000000
1.3002530153         1212.1704672349      0.3280000000      13.5870417137      1.4092567829      0.0000000000
1.3129895547         1146.7448870490      0.3300000000      13.5867961898      1.4243595579      0.0000000000
1.3256704498         1085.4546923167      0.3320000000      13.5865009620      1.4394254941      0.0000000000
1.3382932375         1028.0089785224      0.3340000000      13.5861515091      1.4544514552      0.0000000000
1.3508555383          974.1389512844      0.3360000000      13.5857435301      1.4694343827      0.0000000000
1.3633550572          923.5961561748      0.3380000000      13.5852730619      1.4843712967      0.0000000000
1.3757895829          876.1509501472      0.3400000000      13.5847363441      1.4992592969      0.0000000000
1.3881569884          831.5908571485      0.3420000000      13.5841299566      1.5140955639      0.0000000000
1.4004552305          789.7192006734      0.3440000000      13.5834506152      1.5288773591      0.0000000000
1.4126823497          750.3539646780      0.3460000000      13.5826953878      1.5436020258      0.0000000000
1.4248364691          713.3264854552      0.3480000000      13.5818614939      1.5582669891      0.0000000000
1.4369157943          678.4805573831      0.3500000000      13.5809463924      1.5728697561      0.0000000000
1.4489186126          645.6713154196      0.3520000000      13.5799477725      1.5874079162      0.0000000000
1.4608432920          614.7644279787      0.3540000000      13.5788634994      1.6018791405      0.0000000000
1.4726882804          585.6352455358      0.3560000000      13.5776916452      1.6162811823      0.0000000000
1.4844521043          558.1680707669      0.3580000000      13.5764304781      1.6306118758      0.0000000000
1.4961333664          532.2554833709      0.3600000000      13.5750784125      1.6448691344      0.0000000000
1.5077307506          507.7976382936      0.3620000000      13.5736340698      1.6590509579      0.0000000000
1.5192430114          484.7017651689      0.3640000000      13.5720962235      1.6731554197      0.0000000000
1.5306689784          462.8815946754      0.3660000000      13.5704637888      1.6871806743      0.0000000000
1.5420075540          442.2568878326      0.3680000000      13.5687358311      1.7011249539      0.0000000000
1.5532577114          422.7529321214      0.3700000000      13.5669115879      1.7149865683      0.0000000000
1.5644184934          404.3002134495      0.3720000000      13.5649903807      1.7287639030      0.0000000000
1.5754890109          386.8339350438      0.3740000000      13.5629716996      1.7424554190      0.0000000000
1.5864684413          370.2937415220      0.3760000000      13.5608551559      1.7560596510      0.0000000000
1.5973560267          354.6233225085      0.3780000000      13.5586404345      1.7695752067      0.0000000000
1.6081510725          339.7702352479      0.3800000000      13.5563273749      1.7830007651      0.0000000000
1.6188529459          325.6854796803      0.3820000000      13.5539159012      1.7963350756      0.0000000000
1.6294610740          312.3233298368      0.3840000000      13.5514060431      1.8095769566      0.0000000000
1.6399749424          299.6410896608      0.3860000000      13.5487979088      1.8227252941      0.0000000000
1.6503940930          287.5988540327      0.3880000000      13.5460917108      1.8357790402      0.0000000000
1.6607181232          276.1593408605      0.3900000000      13.5432877431      1.8487372122      0.0000000000
1.6709466834          265.2876861127      0.3920000000      13.5403863500      1.8615988901      0.0000000000
1.6810794762          254.9512403106      0.3940000000      13.5373879871      1.8743632168      0.0000000000
1.6911162537          245.1194983095      0.3960000000      13.5342931526      1.8870293948      0.0000000000
1.7010568169          235.7638641842      0.3980000000      13.5311024288      1.8995966862      0.0000000000
1.7109010137          226.8575493736      0.4000000000      13.5278164399      1.9120644105      0.0000000000
1.7206487367          218.3754840593      0.4020000000      13.5244358713      1.9244319431      0.0000000000
1.7302999227          210.2941293364      0.4040000000      13.5209614713      1.9366987144      0.0000000000
1.7398545502          202.5914248540      0.4060000000      13.5173940305      1.9488642075      0.0000000000
1.7493126386          195.2466776251      0.4080000000      13.5137343775      1.9609279573      0.0000000000
1.7586742460          188.2404422350      0.4100000000      13.5099833955      1.9728895490      0.0000000000
1.7679394681          181.5544920392      0.4120000000      13.5061420033      1.9847486162      0.0000000000
1.7771084366          175.1716816644      0.4140000000      13.5022111374      1.9965048400      0.0000000000
1.7861813180          169.0758999900      0.4160000000      13.4981917985      2.0081579473      0.0000000000
1.7951583116          163.2520075680      0.4180000000      13.4940849992      2.0197077093      0.0000000000
1.8040396489          157.6857585602      0.4200000000      13.4898917754      2.0311539402      0.0000000000
1.8128255916          152.3637574995      0.4220000000      13.4856132074      2.0424964958      0.0000000000
1.8215164304          147.2733864113      0.4240000000      13.4812503791      2.0537352722      0.0000000000
1.8301124840          142.4027646714      0.4260000000      13.4768044121      2.0648702044      0.0000000000
1.8386140976          137.7407086990      0.4280000000      13.4722764274      2.0759012646      0.0000000000
1.8470216414          133.2766683179      0.4300000000      13.4676675723      2.0868284615      0.0000000000
1.8553355101          129.0007060052      0.4320000000      13.4629790080      2.0976518388      0.0000000000
1.8635561210          124.9034448679      0.4340000000      13.4582119132      2.1083714737      0.0000000000
1.8716839133          120.9760411637      0.4360000000      13.4533674693      2.1189874759      0.0000000000
1.8797193469          117.2101439008      0.4380000000      13.4484468745      2.1294999864      0.0000000000
1.8876629009          113.5978738100      0.4400000000      13.4434513157      2.1399091758      0.0000000000
1.8955150735          110.1317810004      0.4420000000      13.4383820239      2.1502152440      0.0000000000
1.9032763799          106.8048366580      0.4440000000      13.4332401908      2.1604184185      0.0000000000
1.9109473521          103.6103884647      0.4460000000      13.4280270386      2.1705189532      0.0000000000
1.9185285374          100.5421516768      0.4480000000      13.4227437900      2.1805171277      0.0000000000
1.9260204981           97.5941752898      0.4500000000      13.4173916494      2.1904132459      0.0000000000
1.9334238099           94.7608350004      0.4520000000      13.4119718552      2.2002076351      0.0000000000
1.9407390614           92.0368022275      0.4540000000      13.4064855976      2.2099006451      0.0000000000
1.9479668534           89.4170346787      0.4560000000      13.4009341185      2.2194926469      0.0000000000
