# M(M_sol)                 Lambda          n_Bc(fm^-3)         R(km)            m_B(M_sol)        m_Bquar/M_B
0.1550102725     15729865.7226174381      0.1550000000      18.2288038485      0.1552424724      0.0000000000
0.1603930421     13159563.0484429579      0.1570000000      17.6633143463      0.1607036941      0.0000000000
0.1660611582     11013199.2025623973      0.1590000000      17.1508983568      0.1664595939      0.0000000000
0.1720195922      9221116.2561738361      0.1610000000      16.6863596771      0.1725159858      0.0000000000
0.1782730064      7724987.5746403774      0.1630000000      16.2650591331      0.1788784213      0.0000000000
0.1848257040      6475965.3831927674      0.1650000000      15.8828496655      0.1855521385      0.0000000000
0.1916816759      5433150.3193524983      0.1670000000      15.5360256555      0.1925421100      0.0000000000
0.1988445775      4562317.5068282457      0.1690000000      15.2212665292      0.1998530185      0.0000000000
0.2063176537      3834866.3484173301      0.1710000000      14.9355989186      0.2074891793      0.0000000000
0.2141037836      3226911.7776990305      0.1730000000      14.6763520171      0.2154545857      0.0000000000
0.2222055224      2718531.6294889138      0.1750000000      14.4411321044      0.2237529505      0.0000000000
0.2306249596      2293120.8546967814      0.1770000000      14.2277803665      0.2323875589      0.0000000000
0.2393638343      1936852.5432310486      0.1790000000      14.0343572701      0.2413613857      0.0000000000
0.2484234934      1638218.8310334496      0.1810000000      13.8591154574      0.2506770506      0.0000000000
0.2578048124      1387645.5213932358      0.1830000000      13.7004731323      0.2603367337      0.0000000000
0.2675082522      1177169.9412757703      0.1850000000      13.5570009805      0.2703422321      0.0000000000
0.2775338901      1000170.1474695337      0.1870000000      13.4274088618      0.2806949895      0.0000000000
0.2878813138       851138.8313214877      0.1890000000      13.3105234398      0.2913959827      0.0000000000
0.2985496780       725494.1457271185      0.1910000000      13.2052794927      0.3024457777      0.0000000000
0.3095377252       619423.6599641853      0.1930000000      13.1107117702      0.3138445479      0.0000000000
0.3208437338       529752.7979290454      0.1950000000      13.0259396409      0.3255920155      0.0000000000
0.3324655345       453836.9975946675      0.1970000000      12.9501603552      0.3376874657      0.0000000000
0.3444005150       389471.4667727498      0.1990000000      12.8826410422      0.3501297469      0.0000000000
0.3566456276       334816.5293344504      0.2010000000      12.8227120334      0.3629172739      0.0000000000
0.3691973946       288335.9689182910      0.2030000000      12.7697609984      0.3760480294      0.0000000000
0.3820519092       248745.5088887610      0.2050000000      12.7232266554      0.3895195604      0.0000000000
0.3952048345       214970.5566958896      0.2070000000      12.6825933288      0.4033289716      0.0000000000
0.4086514434       186110.8788104118      0.2090000000      12.6473890212      0.4174729629      0.0000000000
0.4223865667       161411.4619866521      0.2110000000      12.6171762267      0.4319477691      0.0000000000
0.4364047061       140238.3339894894      0.2130000000      12.5915570113      0.4467492745      0.0000000000
0.4506999380       122058.5131395888      0.2150000000      12.5701605993      0.4618729056      0.0000000000
0.4652660033       106423.3209125574      0.2170000000      12.5526469628      0.4773137208      0.0000000000
0.4800962742        92954.5765172503      0.2190000000      12.5387001730      0.4930663701      0.0000000000
0.4951838373        81333.0614030816      0.2210000000      12.5280317738      0.5091251782      0.0000000000
0.5105214306        71289.0055500229      0.2230000000      12.5203719787      0.5254840720      0.0000000000
0.5261014921        62594.0784597284      0.2250000000      12.5154703554      0.5421366273      0.0000000000
0.5419162180        55054.7628897663      0.2270000000      12.5130975538      0.5590761260      0.0000000000
0.5579575320        48506.8200190195      0.2290000000      12.5130395471      0.5762955185      0.0000000000
0.5742171228        42810.6562201927      0.2310000000      12.5150977619      0.5937874585      0.0000000000
0.5906864644        37847.4561505674      0.2330000000      12.5190878311      0.6115443212      0.0000000000
0.6073568387        33515.9493941729      0.2350000000      12.5248387122      0.6295582218      0.0000000000
0.6242193624        29729.6849737190      0.2370000000      12.5321921351      0.6478210417      0.0000000000
0.6412649703        26414.7675785901      0.2390000000      12.5409984515      0.6663244051      0.0000000000
0.6584845161        23507.9311825173      0.2410000000      12.5511222691      0.6850597857      0.0000000000
0.6758686878        20954.9433248800      0.2430000000      12.5624344231      0.7040184098      0.0000000000
0.6934081210        18709.2373914993      0.2450000000      12.5748165412      0.7231913774      0.0000000000
0.7110933710        16730.7766736838      0.2470000000      12.5881579656      0.7425696285      0.0000000000
0.7289149428        14985.0876513980      0.2490000000      12.6023556906      0.7621439725      0.0000000000
0.7468633102        13442.4457552354      0.2510000000      12.6173137407      0.7819051073      0.0000000000
0.7649289393        12077.1812183385      0.2530000000      12.6329430292      0.8018436424      0.0000000000
0.7831023022        10867.0988743918      0.2550000000      12.6491605257      0.8219501124      0.0000000000
0.8013738967         9792.9753810142      0.2570000000      12.6658889978      0.8422149970      0.0000000000
0.8197342686         8838.1405059261      0.2590000000      12.6830569457      0.8626287438      0.0000000000
0.8381740127         7988.1205714804      0.2610000000      12.7005970581      0.8831817688      0.0000000000
0.8566838100         7230.3260106859      0.2630000000      12.7184476095      0.9038644971      0.0000000000
0.8752544286         6553.7939790395      0.2650000000      12.7365509417      0.9246673626      0.0000000000
0.8938767375         5948.9649671770      0.2670000000      12.7548531427      0.9455808240      0.0000000000
0.9125417335         5407.4900001414      0.2690000000      12.7733049141      0.9665953943      0.0000000000
0.9312405406         4922.0692292461      0.2710000000      12.7918602731      0.9877016411      0.0000000000
0.9499644207         4486.3123883272      0.2730000000      12.8104760582      1.0088901982      0.0000000000
0.9687048022         4094.6141204925      0.2750000000      12.8291134237      1.0301517994      0.0000000000
0.9874532670         3742.0554060126      0.2770000000      12.8477353729      1.0514772644      0.0000000000
1.0062015690         3424.3119857639      0.2790000000      12.8663076164      1.0728575211      0.0000000000
1.0249416552         3137.5765854344      0.2810000000      12.8847993882      1.0942836308      0.0000000000
1.0436656615         2878.4937061584      0.2830000000      12.9031823226      1.1157467859      0.0000000000
1.0623659126         2644.1028700586      0.2850000000      12.9214294540      1.1372383101      0.0000000000
1.0810349459         2431.7876823075      0.2870000000      12.9395170111      1.1587496893      0.0000000000
1.0996654992         2239.2338185878      0.2890000000      12.9574223047      1.1802725583      0.0000000000
1.1182505270         2064.3911823266      0.2910000000      12.9751249862      1.2017987225      0.0000000000
1.1367832039         1905.4412260213      0.2930000000      12.9926067935      1.2233201648      0.0000000000
1.1552569167         1760.7699831341      0.2950000000      13.0098502665      1.2448290373      0.0000000000
1.1736652862         1628.9413643469      0.2970000000      13.0268407275      1.2663176916      0.0000000000
1.1920021460         1508.6783456272      0.2990000000      13.0435636899      1.2877786543      0.0000000000
1.2102615647         1398.8422380712      0.3010000000      13.0600070745      1.3092046579      0.0000000000
1.2284378285         1298.4175630776      0.3030000000      13.0761591519      1.3305886222      0.0000000000
1.2465254535         1206.4972452543      0.3050000000      13.0920097106      1.3519236717      0.0000000000
1.2645191893         1122.2696953912      0.3070000000      13.1075505320      1.3732031435      0.0000000000
1.2824140037         1045.0087662919      0.3090000000      13.1227736651      1.3944205719      0.0000000000
1.3002050837          974.0639651138      0.3110000000      13.1376716879      1.4155696922      0.0000000000
1.3178878449          908.8513139170      0.3130000000      13.1522387737      1.4366444562      0.0000000000
1.3354579234          848.8462257298      0.3150000000      13.1664701841      1.4576390239      0.0000000000
1.3529111703          793.5772404946      0.3170000000      13.1803616479      1.4785477623      0.0000000000
1.3702436474          742.6201109243      0.3190000000      13.1939092457      1.4993652409      0.0000000000
1.3874516266          695.5925874377      0.3210000000      13.2071096908      1.5200862359      0.0000000000
1.4045316022          652.1493512996      0.3230000000      13.2199620423      1.5407057479      0.0000000000
1.4214802536          611.9793719939      0.3250000000      13.2324638155      1.5612189586      0.0000000000
1.4382944694          574.8011383730      0.3270000000      13.2446142400      1.5816212647      0.0000000000
1.4549713304          540.3601317178      0.3290000000      13.2564125846      1.6019082588      0.0000000000
1.4715081159          508.4256070661      0.3310000000      13.2678595313      1.6220757410      0.0000000000
1.4879022778          478.7888888083      0.3330000000      13.2789545496      1.6421196899      0.0000000000
1.5041514604          451.2602624973      0.3350000000      13.2896986961      1.6620362891      0.0000000000
1.5202534887          425.6674084347      0.3370000000      13.3000938738      1.6818219166      0.0000000000
1.5362063479          401.8539819299      0.3390000000      13.3101408335      1.7014731213      0.0000000000
1.5520082028          379.6774243084      0.3410000000      13.3198421109      1.7209866502      0.0000000000
1.5676573721          359.0081272606      0.3430000000      13.3291995017      1.7403594191      0.0000000000
1.5831523383          339.7278012179      0.3450000000      13.3382158206      1.7595885271      0.0000000000
1.5984917299          321.7286636716      0.3470000000      13.3468933114      1.7786712371      0.0000000000
1.6136743306          304.9121454150      0.3490000000      13.3552354173      1.7976049897      0.0000000000
1.6286990625          289.1882426340      0.3510000000      13.3632452643      1.8163873844      0.0000000000
1.6435649830          274.4746654479      0.3530000000      13.3709258776      1.8350161776      0.0000000000
1.6582712873          260.6959883050      0.3550000000      13.3782811212      1.8534892883      0.0000000000
1.6728172942          247.7831673428      0.3570000000      13.3853145196      1.8718047825      0.0000000000
1.6872024482          235.6728472411      0.3590000000      13.3920300623      1.8899608768      0.0000000000
1.7014263088          224.3069199553      0.3610000000      13.3984315233      1.9079559278      0.0000000000
1.7154885497          213.6320074707      0.3630000000      13.4045229281      1.9257884323      0.0000000000
1.7293889561          203.5989848532      0.3650000000      13.4103087314      1.9434570260      0.0000000000
1.7431274119          194.1627498460      0.3670000000      13.4157928727      1.9609604687      0.0000000000
1.7567039052          185.2817064912      0.3690000000      13.4209798873      1.9782976522      0.0000000000
1.7701185138          176.9176010246      0.3710000000      13.4258737786      1.9954675848      0.0000000000
1.7833714132          169.0350581209      0.3730000000      13.4304794866      2.0124694016      0.0000000000
1.7964628591          161.6015321531      0.3750000000      13.4348011941      2.0293023441      0.0000000000
1.8093931937          154.5868901750      0.3770000000      13.4388436753      2.0459657692      0.0000000000
1.8221628314          147.9634049314      0.3790000000      13.4426108896      2.0624591321      0.0000000000
1.8347722692          141.7052791768      0.3810000000      13.4461079849      2.0787820014      0.0000000000
1.8472220682          135.7887610767      0.3830000000      13.4493392099      2.0949340352      0.0000000000
1.8595128607          130.1917764491      0.3850000000      13.4523094847      2.1109149925      0.0000000000
1.8716453352          124.8939639185      0.3870000000      13.4550227009      2.1267247135      0.0000000000
1.8836202484          119.8763356798      0.3890000000      13.4574839477      2.1423631370      0.0000000000
1.8954384096          115.1213158549      0.3910000000      13.4596977969      2.1578302808      0.0000000000
1.9071006791          110.6126091950      0.3930000000      13.4616685357      2.1731262398      0.0000000000
1.9186079698          106.3350388238      0.3950000000      13.4634008020      2.1882511895      0.0000000000
1.9299612395          102.2745174434      0.3970000000      13.4648989407      2.2032053759      0.0000000000
1.9411614927           98.4179045269      0.3990000000      13.4661676639      2.2179891193      0.0000000000
1.9522097711           94.7530079538      0.4010000000      13.4672111789      2.2326028018      0.0000000000
1.9631071567           91.2684509511      0.4030000000      13.4680338860      2.2470468718      0.0000000000
1.9738547676           87.9536191809      0.4050000000      13.4686402548      2.2613218395      0.0000000000
1.9844537540           84.7986235159      0.4070000000      13.4690345733      2.2754282714      0.0000000000
1.9949052963           81.7942391846      0.4090000000      13.4692210393      2.2893667890      0.0000000000
2.0052106054           78.9318284457      0.4110000000      13.4692041707      2.3031380685      0.0000000000
2.0153709121           76.2033823483      0.4130000000      13.4689874537      2.3167428278      0.0000000000
2.0253874799           73.6013207262      0.4150000000      13.4685757477      2.3301818438      0.0000000000
2.0352615872           71.1186281880      0.4170000000      13.4679727872      2.3434559283      0.0000000000
2.0449945340           68.7487123510      0.4190000000      13.4671825707      2.3565659381      0.0000000000
2.0545876407           66.4853800937      0.4210000000      13.4662093990      2.3695127727      0.0000000000
2.0640422381           64.3228784490      0.4230000000      13.4650566804      2.3822973611      0.0000000000
2.0733596775           62.2557577551      0.4250000000      13.4637287378      2.3949206766      0.0000000000
2.0825413186           60.2789452795      0.4270000000      13.4622291793      2.4073837191      0.0000000000
2.0915885333           58.3876672973      0.4290000000      13.4605617063      2.4196875213      0.0000000000
2.1005027034           56.5774400875      0.4310000000      13.4587300758      2.4318331453      0.0000000000
2.1092852194           54.8440461251      0.4330000000      13.4567380536      2.4438216812      0.0000000000
2.1179374769           53.1835354249      0.4350000000      13.4545890907      2.4556542418      0.0000000000
2.1264608783           51.5921787603      0.4370000000      13.4522868494      2.4673319656      0.0000000000
2.1348568295           50.0664773099      0.4390000000      13.4498347301      2.4788560113      0.0000000000
2.1431267383           48.6031385922      0.4410000000      13.4472360190      2.4902275568      0.0000000000
2.1512720168           47.1990524406      0.4430000000      13.4444942046      2.5014478014      0.0000000000
2.1592940765           45.8512952031      0.4450000000      13.4416126026      2.5125179595      0.0000000000
2.1671943299           44.5571015139      0.4470000000      13.4385945799      2.5234392625      0.0000000000
2.1749741865           43.3138774469      0.4490000000      13.4354431703      2.5342129533      0.0000000000
2.1826350541           42.1191730663      0.4510000000      13.4321613936      2.5448402883      0.0000000000
2.1901783398           40.9706615176      0.4530000000      13.4287525685      2.5553225379      0.0000000000
2.1976054457           39.8661544944      0.4550000000      13.4252197148      2.5656609814      0.0000000000
2.2049177693           38.8035857829      0.4570000000      13.4215658169      2.5758569065      0.0000000000
2.2121167013           37.7810109712      0.4590000000      13.4177934092      2.5859116062      0.0000000000
2.2192036314           36.7965670849      0.4610000000      13.4139058652      2.5958263877      0.0000000000
2.2261799378           35.8485176237      0.4630000000      13.4099055897      2.6056025562      0.0000000000
2.2330469959           34.9351946673      0.4650000000      13.4057956958      2.6152414284      0.0000000000
2.2398061710           34.0550396291      0.4670000000      13.4015786892      2.6247443202      0.0000000000
2.2464588208           33.2065661304      0.4690000000      13.3972572344      2.6341125523      0.0000000000
2.2530062955           32.3883671088      0.4710000000      13.3928339406      2.6433474478      0.0000000000
2.2594499353           31.5991100219      0.4730000000      13.3883113404      2.6524503303      0.0000000000
2.2657910732           30.8375206797      0.4750000000      13.3836922011      2.6614225273      0.0000000000
2.2720310280           30.1024149482      0.4770000000      13.3789784382      2.6702653588      0.0000000000
2.2781711144           29.3926369481      0.4790000000      13.3741730048      2.6789801533      0.0000000000
2.2842126321           28.7071139742      0.4810000000      13.3692779997      2.6875682310      0.0000000000
2.2901568714           28.0448201255      0.4830000000      13.3642956216      2.6960309113      0.0000000000
2.2960051129           27.4047734064      0.4850000000      13.3592283469      2.7043695137      0.0000000000
2.3017586251           26.7860455349      0.4870000000      13.3540783861      2.7125853519      0.0000000000
2.3074186653           26.1877545191      0.4890000000      13.3488479259      2.7206797369      0.0000000000
2.3129864773           25.6090649892      0.4910000000      13.3435388139      2.7286539724      0.0000000000
2.3184632961           25.0491746196      0.4930000000      13.3381533765      2.7365093619      0.0000000000
2.3238503443           24.5073170596      0.4950000000      13.3326938209      2.7442472025      0.0000000000
2.3291488296           23.9827761916      0.4970000000      13.3271618062      2.7518687822      0.0000000000
2.3343599506           23.4748557752      0.4990000000      13.3215595326      2.7593753870      0.0000000000
2.3394848919           22.9829003287      0.5010000000      13.3158888485      2.7667682944      0.0000000000
2.3445248260           22.5062825007      0.5030000000      13.3101516307      2.7740487752      0.0000000000
2.3494809128           22.0444039616      0.5050000000      13.3043497179      2.7812180938      0.0000000000
2.3543542994           21.5966948463      0.5070000000      13.2984848758      2.7882775057      0.0000000000
2.3591461210           21.1626099588      0.5090000000      13.2925589229      2.7952282607      0.0000000000
2.3638574990           20.7416311018      0.5110000000      13.2865735367      2.8020715987      0.0000000000
2.3684895440           20.3332554426      0.5130000000      13.2805306728      2.8088087541      0.0000000000
