# M(M_sol)                 Lambda          n_Bc(fm^-3)         R(km)            m_B(M_sol)        m_Bquar/M_B
0.1547466054     41342237.3795921877      0.0930000000      23.1373498802      0.1550358350      0.0000000000
0.1613816750     33785226.2901965454      0.0950000000      22.1779217237      0.1617671869      0.0000000000
0.1681681198     27808765.3309029825      0.0970000000      21.3579787283      0.1686583799      0.0000000000
0.1750961056     23036254.2568000890      0.0990000000      20.6512943992      0.1756997892      0.0000000000
0.1821564509     19193823.4880930372      0.1010000000      20.0376598008      0.1828824265      0.0000000000
0.1893405427     16078079.7024007533      0.1030000000      19.5012722946      0.1901978560      0.0000000000
0.1966402676     13535426.5138530973      0.1050000000      19.0296084914      0.1976381259      0.0000000000
0.2040479649     11448382.2161320243      0.1070000000      18.6126291989      0.2051957211      0.0000000000
0.2115563810      9726106.4774358403      0.1090000000      18.2421986437      0.2128635185      0.0000000000
0.2191586396      8297724.3447224423      0.1110000000      17.9116605036      0.2206347576      0.0000000000
0.2268482090      7107507.1874246383      0.1130000000      17.6155216933      0.2285030077      0.0000000000
0.2345537952      6118923.3565368326      0.1150000000      17.3513167711      0.2363954508      0.0000000000
0.2421817747      5301592.8385376958      0.1170000000      17.1170771993      0.2442160799      0.0000000000
0.2497945576      4615272.4164777352      0.1190000000      16.9065139496      0.2520287255      0.0000000000
0.2574061984      4034466.7042665672      0.1210000000      16.7160014699      0.2598477729      0.0000000000
0.2650220813      3540015.3591262088      0.1230000000      16.5427965740      0.2676787461      0.0000000000
0.2726445479      3116931.9140552557      0.1250000000      16.3846899134      0.2755240593      0.0000000000
0.2802745263      2753270.6533958488      0.1270000000      16.2398534249      0.2833846809      0.0000000000
0.2879121937      2439393.8146382174      0.1290000000      16.1067502251      0.2912608104      0.0000000000
0.2955573026      2167452.8564981925      0.1310000000      15.9840737717      0.2991522102      0.0000000000
0.3032093556      1931009.3562345479      0.1330000000      15.8707041307      0.3070583860      0.0000000000
0.3108677077      1724746.3590014486      0.1350000000      15.7656740620      0.3149786892      0.0000000000
0.3185316270      1544248.6759832331      0.1370000000      15.6681430899      0.3229123805      0.0000000000
0.3262003397      1385831.0508746945      0.1390000000      15.5773773671      0.3308586758      0.0000000000
0.3338730532      1246402.8058543873      0.1410000000      15.4927328992      0.3388167689      0.0000000000
0.3415489766      1123360.5978039207      0.1430000000      15.4136419475      0.3467858539      0.0000000000
0.3492273305      1014503.1795933530      0.1450000000      15.3396025371      0.3547651347      0.0000000000
0.3569073570       917961.8198412289      0.1470000000      15.2701686946      0.3627538355      0.0000000000
0.3645883252       832144.6051684325      0.1490000000      15.2049431728      0.3707512065      0.0000000000
0.3722695355       755690.8766203956      0.1510000000      15.1435711033      0.3787565285      0.0000000000
0.3799503205       687433.6724803535      0.1530000000      15.0857340233      0.3867691142      0.0000000000
0.3876300484       626369.7344906615      0.1550000000      15.0311462753      0.3947883115      0.0000000000
0.3953081224       571633.4113256535      0.1570000000      14.9795501808      0.4028135031      0.0000000000
0.4029839808       522476.0409098743      0.1590000000      14.9307129527      0.4108441071      0.0000000000
0.4106571071       478248.3254916338      0.1610000000      14.8844240271      0.4188795871      0.0000000000
0.4183269928       438385.9340649397      0.1630000000      14.8404924128      0.4269194139      0.0000000000
0.4259931895       402396.8721703248      0.1650000000      14.7987444474      0.4349631199      0.0000000000
0.4336552717       369851.4408692988      0.1670000000      14.7590218392      0.4430102606      0.0000000000
0.4413128474       340373.4125871815      0.1690000000      14.7211803828      0.4510604254      0.0000000000
0.4489655538       313632.6895449053      0.1710000000      14.6850880917      0.4591132333      0.0000000000
0.4566130582       289339.0299103670      0.1730000000      14.6506242543      0.4671683346      0.0000000000
0.4642550546       267236.7541653081      0.1750000000      14.6176780897      0.4752254065      0.0000000000
0.4718912645       247100.1334047859      0.1770000000      14.5861479234      0.4832841546      0.0000000000
0.4795214330       228729.5677322250      0.1790000000      14.5559401978      0.4913443089      0.0000000000
0.4871453296       211948.1971228675      0.1810000000      14.5269688362      0.4994056246      0.0000000000
0.4947627404       196599.0323674307      0.1830000000      14.4991542543      0.5074678740      0.0000000000
0.5023734862       182542.5009258487      0.1850000000      14.4724231517      0.5155308656      0.0000000000
0.5099773934       169654.3251091154      0.1870000000      14.4467077448      0.5235944137      0.0000000000
0.5175743099       157823.6264692453      0.1890000000      14.4219452003      0.5316583550      0.0000000000
0.5251641011       146951.3242190272      0.1910000000      14.3980772940      0.5397225448      0.0000000000
0.5327466465       136948.8141001344      0.1930000000      14.3750501116      0.5477868527      0.0000000000
0.5403218392       127736.6598754734      0.1950000000      14.3528134780      0.5558511632      0.0000000000
0.5478895863       119243.5705380429      0.1970000000      14.3313208444      0.5639153753      0.0000000000
0.5554498041       111405.5039879690      0.1990000000      14.3105287878      0.5719793979      0.0000000000
0.5630024204       104164.8074451770      0.2010000000      14.2903969154      0.5800431521      0.0000000000
0.5705473714        97469.5388937823      0.2030000000      14.2708875559      0.5881065681      0.0000000000
0.5780846019        91272.8234086489      0.2050000000      14.2519655821      0.5961695850      0.0000000000
0.5856140625        85532.3240958202      0.2070000000      14.2335981403      0.6042321488      0.0000000000
0.5931357106        80209.7354451153      0.2090000000      14.2157545516      0.6122942122      0.0000000000
0.6006495079        75270.3740976023      0.2110000000      14.1984060981      0.6203557329      0.0000000000
0.6081554206        70682.7839020807      0.2130000000      14.1815258841      0.6284166737      0.0000000000
0.6156534180        66418.4212641255      0.2150000000      14.1650887449      0.6364770005      0.0000000000
0.6231434713        62451.3278810254      0.2170000000      14.1490710315      0.6445366817      0.0000000000
0.6306255536        58757.9090164257      0.2190000000      14.1334506032      0.6525956876      0.0000000000
0.6380996388        55316.6683549485      0.2210000000      14.1182066491      0.6606539896      0.0000000000
0.6455657011        52107.9943041851      0.2230000000      14.1033195101      0.6687115597      0.0000000000
0.6530237143        49114.0075149849      0.2250000000      14.0887708964      0.6767683692      0.0000000000
0.6604736512        46318.3610333982      0.2270000000      14.0745434787      0.6848243888      0.0000000000
0.6679154822        43706.1121493942      0.2290000000      14.0606209283      0.6928795865      0.0000000000
0.6753491763        41263.5824206086      0.2310000000      14.0469878880      0.7009339288      0.0000000000
0.6827746998        38978.2390239855      0.2330000000      14.0336299113      0.7089873796      0.0000000000
0.6901920156        36838.5867614559      0.2350000000      14.0205332778      0.7170398988      0.0000000000
0.6976010828        34834.0780667694      0.2370000000      14.0076850695      0.7250914426      0.0000000000
0.7050018579        32955.0188941698      0.2390000000      13.9950732047      0.7331419641      0.0000000000
0.7123942916        31192.5011386295      0.2410000000      13.9826861206      0.7411914100      0.0000000000
0.7197783308        29538.3236335972      0.2430000000      13.9705129495      0.7492397234      0.0000000000
0.7271539177        27984.9314697167      0.2450000000      13.9585433691      0.7572868413      0.0000000000
0.7345209888        26525.3647465646      0.2470000000      13.9467676395      0.7653326953      0.0000000000
0.7418794755        25153.2023759464      0.2490000000      13.9351765417      0.7733772106      0.0000000000
0.7492293040        23862.5128752584      0.2510000000      13.9237613241      0.7814203069      0.0000000000
0.7565703942        22647.8199259972      0.2530000000      13.9125136972      0.7894618969      0.0000000000
0.7639026612        21504.0564970097      0.2550000000      13.9014258154      0.7975018878      0.0000000000
0.7712260122        20426.5383061731      0.2570000000      13.8904901770      0.8055401777      0.0000000000
0.7785403500        19410.9248581537      0.2590000000      13.8796997292      0.8135766597      0.0000000000
0.7858455705        18453.1957998114      0.2610000000      13.8690477389      0.8216112191      0.0000000000
0.7931415636        17549.6216354933      0.2630000000      13.8585278146      0.8296437343      0.0000000000
0.8004282125        16696.7439418388      0.2650000000      13.8481338357      0.8376740758      0.0000000000
0.8077053950        15891.3490596632      0.2670000000      13.8378600980      0.8457021080      0.0000000000
0.8149729813        15130.4549140672      0.2690000000      13.8277010562      0.8537276862      0.0000000000
0.8222308364        14411.2851733401      0.2710000000      13.8176514673      0.8617506594      0.0000000000
0.8294788185        13731.2593589856      0.2730000000      13.8077063683      0.8697708694      0.0000000000
0.8367167795        13087.9759716308      0.2750000000      13.7978609917      0.8777881494      0.0000000000
0.8439445657        12479.1961010455      0.2770000000      13.7881108588      0.8858023266      0.0000000000
0.8511620167        11902.8350984811      0.2790000000      13.7784516041      0.8938132197      0.0000000000
0.8583689663        11356.9478665581      0.2810000000      13.7688791061      0.9018206407      0.0000000000
0.8655652423        10839.7207231776      0.2830000000      13.7593894404      0.9098243943      0.0000000000
0.8727506675        10349.4587619671      0.2850000000      13.7499789275      0.9178242785      0.0000000000
0.8799250575         9884.5815646736      0.2870000000      13.7406439360      0.9258200830      0.0000000000
0.8870882240         9443.6089565406      0.2890000000      13.7313810498      0.9338115921      0.0000000000
0.8942399720         9025.1596443116      0.2910000000      13.7221870261      0.9417985821      0.0000000000
0.9013801020         8627.9396593998      0.2930000000      13.7130587321      0.9497808233      0.0000000000
0.9085084092         8250.7388095315      0.2950000000      13.7039931918      0.9577580791      0.0000000000
0.9156246836         7892.4231960354      0.2970000000      13.6949875461      0.9657301067      0.0000000000
0.9227287112         7551.9304857695      0.2990000000      13.6860391018      0.9736966572      0.0000000000
0.9298202726         7228.2646240713      0.3010000000      13.6771452063      0.9816574753      0.0000000000
0.9368991441         6920.4931653422      0.3030000000      13.6683033833      0.9896122995      0.0000000000
0.9439650985         6627.7381577378      0.3050000000      13.6595112608      0.9975608638      0.0000000000
0.9510179040         6349.1782630254      0.3070000000      13.6507665248      1.0055028957      0.0000000000
0.9580573246         6084.0409847933      0.3090000000      13.6420670068      1.0134381169      0.0000000000
0.9650831214         5831.6003079945      0.3110000000      13.6334106015      1.0213662451      0.0000000000
0.9720950517         5591.1746362210      0.3130000000      13.6247952836      1.0292869921      0.0000000000
0.9790928697         5362.1220907240      0.3150000000      13.6162191554      1.0372000656      0.0000000000
0.9860763263         5143.8400732496      0.3170000000      13.6076803560      1.0451051682      0.0000000000
0.9930451702         4935.7596359309      0.3190000000      13.5991770947      1.0530019987      0.0000000000
0.9999991468         4737.3468401313      0.3210000000      13.5907077202      1.0608902515      0.0000000000
1.0069379995         4548.0980834257      0.3230000000      13.5822705557      1.0687696170      0.0000000000
1.0138614693         4367.5387579723      0.3250000000      13.5738640807      1.0766397819      0.0000000000
1.0207692955         4195.2216683469      0.3270000000      13.5654867907      1.0845004297      0.0000000000
1.0276612151         4030.7252405373      0.3290000000      13.5571372367      1.0923512402      0.0000000000
1.0345369642         3873.6514270559      0.3310000000      13.5488140588      1.1001918906      0.0000000000
1.0413962769         3723.6252055656      0.3330000000      13.5405159344      1.1080220548      0.0000000000
1.0482388868         3580.2916746075      0.3350000000      13.5322415632      1.1158414048      0.0000000000
1.0550645259         3443.3165249833      0.3370000000      13.5239897801      1.1236496095      0.0000000000
1.0618729258         3312.3835279546      0.3390000000      13.5157593863      1.1314463358      0.0000000000
1.0686638174         3187.1941834318      0.3410000000      13.5075492771      1.1392312489      0.0000000000
1.0754369315         3067.4658504862      0.3430000000      13.4993583593      1.1470040122      0.0000000000
1.0821919985         2952.9314884045      0.3450000000      13.4911856172      1.1547642875      0.0000000000
1.0889287487         2843.3387793301      0.3470000000      13.4830300563      1.1625117351      0.0000000000
1.0956469132         2738.4483725623      0.3490000000      13.4748907485      1.1702460149      0.0000000000
1.1023462228         2638.0343318600      0.3510000000      13.4667667787      1.1779667850      0.0000000000
1.1090264092         2541.8823086909      0.3530000000      13.4586572209      1.1856737033      0.0000000000
1.1156872051         2449.7894531343      0.3550000000      13.4505613015      1.1933664274      0.0000000000
1.1223283437         2361.5636720315      0.3570000000      13.4424782078      1.2010446144      0.0000000000
1.1289495598         2277.0227027256      0.3590000000      13.4344071318      1.2087079213      0.0000000000
1.1355505890         2195.9938930138      0.3610000000      13.4263473830      1.2163560055      0.0000000000
1.1421311711         2118.3136540916      0.3630000000      13.4182982386      1.2239885271      0.0000000000
1.1486910401         2043.8266104579      0.3650000000      13.4102589874      1.2316051387      0.0000000000
1.1552299383         1972.3853879446      0.3670000000      13.4022290246      1.2392055008      0.0000000000
1.1617476097         1903.8502690544      0.3690000000      13.3942077068      1.2467892749      0.0000000000
1.1682437983         1838.0883850926      0.3710000000      13.3861944637      1.2543561208      0.0000000000
1.1747182517         1774.9737233390      0.3730000000      13.3781886881      1.2619057014      0.0000000000
1.1811707174         1714.3866030098      0.3750000000      13.3701898500      1.2694376781      0.0000000000
1.1876009479         1656.2133389719      0.3770000000      13.3621974309      1.2769517168      0.0000000000
1.1940086974         1600.3457438683      0.3790000000      13.3542109353      1.2844474839      0.0000000000
1.2003937230         1546.6811397081      0.3810000000      13.3462298869      1.2919246484      0.0000000000
1.2067557844         1495.1218627782      0.3830000000      13.3382538150      1.2993828803      0.0000000000
1.2130946447         1445.5748172161      0.3850000000      13.3302823146      1.3068218530      0.0000000000
1.2194100695         1397.9518677534      0.3870000000      13.3223149562      1.3142412414      0.0000000000
1.2257018281         1352.1688060473      0.3890000000      13.3143513316      1.3216407231      0.0000000000
1.2319696929         1308.1456026053      0.3910000000      13.3063910755      1.3290199784      0.0000000000
1.2382134395         1265.8060386494      0.3930000000      13.2984338433      1.3363786904      0.0000000000
1.2444328474         1225.0776065378      0.3950000000      13.2904792666      1.3437165449      0.0000000000
1.2506276993         1185.8912269989      0.3970000000      13.2825270395      1.3510332311      0.0000000000
1.2567977818         1148.1810540478      0.3990000000      13.2745768600      1.3583284409      0.0000000000
1.2629428851         1111.8843854859      0.4010000000      13.2666284373      1.3656018696      0.0000000000
1.2690628032         1076.9414327487      0.4030000000      13.2586814716      1.3728532160      0.0000000000
1.2751573341         1043.2952578587      0.4050000000      13.2507357234      1.3800821823      0.0000000000
1.2812262798         1010.8914291173      0.4070000000      13.2427909447      1.3872884742      0.0000000000
1.2872694461          979.6781985555      0.4090000000      13.2348468964      1.3944718012      0.0000000000
1.2932866429          949.6061555307      0.4110000000      13.2269033563      1.4016318763      0.0000000000
1.2992776845          920.6281086758      0.4130000000      13.2189601248      1.4087684166      0.0000000000
1.3052423892          892.6990516643      0.4150000000      13.2110170084      1.4158811432      0.0000000000
1.3111805794          865.7760344464      0.4170000000      13.2030738169      1.4229697810      0.0000000000
1.3170920819          839.8180563364      0.4190000000      13.1951303824      1.4300340591      0.0000000000
1.3229767280          814.7859280530      0.4210000000      13.1871865543      1.4370737109      0.0000000000
1.3288343530          790.6422629567      0.4230000000      13.1792421798      1.4440884737      0.0000000000
1.3346647967          767.3513041751      0.4250000000      13.1712971279      1.4510780894      0.0000000000
1.3404679035          744.8789270705      0.4270000000      13.1633512564      1.4580423042      0.0000000000
1.3462435219          723.1925101620      0.4290000000      13.1554044705      1.4649808687      0.0000000000
1.3519915049          702.2608567062      0.4310000000      13.1474566339      1.4718935379      0.0000000000
1.3577117104          682.0540959375      0.4330000000      13.1395076867      1.4787800715      0.0000000000
1.3634040002          662.5438148575      0.4350000000      13.1315575217      1.4856402334      0.0000000000
1.3690682409          643.7026351017      0.4370000000      13.1236060481      1.4924737927      0.0000000000
1.3747043035          625.5045645728      0.4390000000      13.1156532017      1.4992805225      0.0000000000
1.3803120637          607.9245373274      0.4410000000      13.1076989429      1.5060602013      0.0000000000
1.3858914014          590.9387353981      0.4430000000      13.0997431939      1.5128126116      0.0000000000
1.3914422011          574.5242878222      0.4450000000      13.0917859099      1.5195375410      0.0000000000
1.3969643520          558.6592970063      0.4470000000      13.0838270597      1.5262347819      0.0000000000
1.4024577475          543.3227889137      0.4490000000      13.0758666088      1.5329041312      0.0000000000
1.4079222856          528.4947020544      0.4510000000      13.0679045183      1.5395453910      0.0000000000
