# M(M_sol)                 Lambda          n_Bc(fm^-3)         R(km)            m_B(M_sol)        m_Bquar/M_B
0.1556445681     47959682.2281642854      0.0810000000      23.9237297262      0.1559380580      0.0000000000
0.1622117672     39943898.8079112917      0.0830000000      22.9905968533      0.1626029642      0.0000000000
0.1687296139     33635039.7243732139      0.0850000000      22.2082131794      0.1692237924      0.0000000000
0.1752028857     28581734.2399269231      0.0870000000      21.5423495972      0.1758051917      0.0000000000
0.1816371221     24475251.0766468346      0.0890000000      20.9683373273      0.1823526191      0.0000000000
0.1880384064     21097371.7566666342      0.0910000000      20.4679599123      0.1888721169      0.0000000000
0.1944132082     18289678.6799355745      0.0930000000      20.0274817645      0.1953701516      0.0000000000
0.2007682692     15934651.1783206407      0.0950000000      19.6363566557      0.2018534972      0.0000000000
0.2071105237     13943493.8044681568      0.0970000000      19.2863603076      0.2083291531      0.0000000000
0.2134470256     12248044.3830038831      0.0990000000      18.9709880840      0.2148042692      0.0000000000
0.2197849051     10795265.2472144272      0.1010000000      18.6850331782      0.2212861013      0.0000000000
0.2261313268      9543378.7671925034      0.1030000000      18.4242811697      0.2277819668      0.0000000000
0.2324934582      8459119.5680445973      0.1050000000      18.1852876716      0.2342992136      0.0000000000
0.2388784493      7515740.8199472455      0.1070000000      17.9652127692      0.2408451970      0.0000000000
0.2452934090      6691545.6478373855      0.1090000000      17.7616963603      0.2474272566      0.0000000000
0.2517453895      5968788.0220330833      0.1110000000      17.5727624727      0.2540526995      0.0000000000
0.2582413755      5332847.4118344029      0.1130000000      17.3967468298      0.2607287885      0.0000000000
0.2647362940      4775759.1057021366      0.1150000000      17.2334954024      0.2674092457      0.0000000000
0.2711488216      4292061.8508528732      0.1170000000      17.0835044279      0.2740103132      0.0000000000
0.2775484071      3865971.1594305634      0.1190000000      16.9437706668      0.2806033595      0.0000000000
0.2839594100      3488225.9389884807      0.1210000000      16.8127845430      0.2872134760      0.0000000000
0.2903972851      3151852.6555976239      0.1230000000      16.6894587795      0.2938566438      0.0000000000
0.2968741792      2851265.1243039654      0.1250000000      16.5729333634      0.3005454779      0.0000000000
0.3034005358      2581870.1387349241      0.1270000000      16.4625027290      0.3072908748      0.0000000000
0.3099857577      2339830.7180365655      0.1290000000      16.3575765498      0.3141026900      0.0000000000
0.3166385326      2121906.1673095957      0.1310000000      16.2576554512      0.3209900725      0.0000000000
0.3233670187      1925334.8831489051      0.1330000000      16.1623130385      0.3279616548      0.0000000000
0.3301789508      1747745.2110782273      0.1350000000      16.0711829681      0.3350256610      0.0000000000
0.3370817101      1587088.3942428946      0.1370000000      15.9839491049      0.3421899786      0.0000000000
0.3440823681      1441583.2143877891      0.1390000000      15.9003375836      0.3494622033      0.0000000000
0.3511877172      1309673.0083550159      0.1410000000      15.8201098614      0.3568496709      0.0000000000
0.3584042898      1189991.1294061912      0.1430000000      15.7430582477      0.3643594758      0.0000000000
0.3657383697      1081331.9903494839      0.1450000000      15.6690006993      0.3719984837      0.0000000000
0.3731960026       982627.5496178087      0.1470000000      15.5977774924      0.3797733419      0.0000000000
0.3807829951       892928.4348894823      0.1490000000      15.5292481303      0.3876904782      0.0000000000
0.3885049216       811387.2930573226      0.1510000000      15.4632882979      0.3957561082      0.0000000000
0.3963671189       737245.8034793596      0.1530000000      15.3997881595      0.4039762293      0.0000000000
0.4043746848       669822.8873787628      0.1550000000      15.3386497104      0.4123566192      0.0000000000
0.4125324770       608505.5453800206      0.1570000000      15.2797855942      0.4209028349      0.0000000000
0.4208451014       552740.4861495337      0.1590000000      15.2231170402      0.4296201996      0.0000000000
0.4293169230       502027.4192095511      0.1610000000      15.1685730847      0.4385138142      0.0000000000
0.4379520236       455912.9661829231      0.1630000000      15.1160892347      0.4475885130      0.0000000000
0.4467542430       413985.7891459707      0.1650000000      15.0656063960      0.4568489053      0.0000000000
0.4557271440       375871.9354890873      0.1670000000      15.0170699980      0.4662993396      0.0000000000
0.4648740115       341231.1506228708      0.1690000000      14.9704292997      0.4759439008      0.0000000000
0.4741978475       309753.5841407985      0.1710000000      14.9256366389      0.4857864050      0.0000000000
0.4837013682       281156.7938037278      0.1730000000      14.8826471725      0.4958303949      0.0000000000
0.4933869940       255183.1902027173      0.1750000000      14.8414178264      0.5060791291      0.0000000000
0.5032568480       231597.7415237323      0.1770000000      14.8019073885      0.5165355786      0.0000000000
0.5133127519       210185.9129337225      0.1790000000      14.7640756769      0.5272024216      0.0000000000
0.5235562182       190751.9542205435      0.1810000000      14.7278837337      0.5380820343      0.0000000000
0.5339884553       173117.1298182232      0.1830000000      14.6932931295      0.5491764941      0.0000000000
0.5446103573       157118.3098212053      0.1850000000      14.6602659942      0.5604875680      0.0000000000
0.5554224993       142606.6637240397      0.1870000000      14.6287647637      0.5720167050      0.0000000000
0.5664251657       129446.3742574226      0.1890000000      14.5987519145      0.5837650651      0.0000000000
0.5776183057       117513.5882724366      0.1910000000      14.5701900495      0.5957334698      0.0000000000
0.5890015636       106695.4123736790      0.1930000000      14.5430418365      0.6079224319      0.0000000000
0.6005742724        96888.9624039398      0.1950000000      14.5172697635      0.6203321474      0.0000000000
0.6123354584        88000.5116206863      0.1970000000      14.4928361219      0.6329624971      0.0000000000
0.6242838424        79944.7523608335      0.1990000000      14.4697032145      0.6458130461      0.0000000000
0.6364178437        72644.0535195608      0.2010000000      14.4478330823      0.6588830457      0.0000000000
0.6487355882        66027.8071366719      0.2030000000      14.4271876613      0.6721714395      0.0000000000
0.6612349079        60031.8444929257      0.2050000000      14.4077287813      0.6856768598      0.0000000000
0.6739133549        54597.8545107082      0.2070000000      14.3894182324      0.6993976404      0.0000000000
0.6867682010        49672.8923101216      0.2090000000      14.3722176943      0.7133318135      0.0000000000
0.6997964517        45208.9009663389      0.2110000000      14.3560888961      0.7274771220      0.0000000000
0.7129948490        41162.2857186911      0.2130000000      14.3409935460      0.7418310193      0.0000000000
0.7263598850        37493.5170310638      0.2150000000      14.3268936213      0.7563906818      0.0000000000
0.7398878077        34166.7656581146      0.2170000000      14.3137511073      0.7711530119      0.0000000000
0.7535746339        31149.5695369951      0.2190000000      14.3015282908      0.7861146494      0.0000000000
0.7674161555        28412.5272044528      0.2210000000      14.2901875998      0.8012719754      0.0000000000
0.7814079570        25929.0222974155      0.2230000000      14.2796919921      0.8166211288      0.0000000000
0.7955454195        23674.9649511079      0.2250000000      14.2700047087      0.8321580074      0.0000000000
0.8098237377        21628.5562253815      0.2270000000      14.2610893494      0.8478782843      0.0000000000
0.8242379283        19770.0814695348      0.2290000000      14.2529101568      0.8637774143      0.0000000000
0.8387828439        18081.7073856236      0.2310000000      14.2454317558      0.8798506458      0.0000000000
0.8534531843        16547.3127984329      0.2330000000      14.2386194566      0.8960930319      0.0000000000
0.8682435101        15152.3195422906      0.2350000000      14.2324391070      0.9124994420      0.0000000000
0.8831482541        13883.5524967284      0.2370000000      14.2268573000      0.9290645724      0.0000000000
0.8981617341        12729.1018926909      0.2390000000      14.2218411955      0.9457829578      0.0000000000
0.9132781660        11678.2043369990      0.2410000000      14.2173588102      0.9626489843      0.0000000000
0.9284916751        10721.1317742394      0.2430000000      14.2133788180      0.9796568991      0.0000000000
0.9437963109         9849.0923339931      0.2450000000      14.2098707299      0.9968008254      0.0000000000
0.9591860560         9054.1384872732      0.2470000000      14.2068047340      1.0140747708      0.0000000000
0.9746548416         8329.0893080899      0.2490000000      14.2041519874      1.0314726425      0.0000000000
0.9901965584         7667.4514642534      0.2510000000      14.2018844069      1.0489882575      0.0000000000
1.0058050673         7063.3557290417      0.2530000000      14.1999747453      1.0666153546      0.0000000000
1.0214742116         6511.4947700523      0.2550000000      14.1983965706      1.0843476052      0.0000000000
1.0371978292         6007.0686469046      0.2570000000      14.1971243532      1.1021786271      0.0000000000
1.0529697628         5545.7371539710      0.2590000000      14.1961334787      1.1201019943      0.0000000000
1.0687838691         5123.5721183696      0.2610000000      14.1954000328      1.1381112471      0.0000000000
1.0846340318         4737.0195789535      0.2630000000      14.1949010920      1.1561999056      0.0000000000
1.1005141692         4382.8626949175      0.2650000000      14.1946145713      1.1743614780      0.0000000000
1.1164182448         4058.1884708472      0.2670000000      14.1945191920      1.1925894728      0.0000000000
1.1323402757         3760.3589420636      0.2690000000      14.1945945366      1.2108774072      0.0000000000
1.1482743420         3486.9839326779      0.2710000000      14.1948210554      1.2292188179      0.0000000000
1.1642145933         3235.8973895938      0.2730000000      14.1951799395      1.2476072692      0.0000000000
1.1801552592         3005.1354488282      0.2750000000      14.1956532944      1.2660363649      0.0000000000
1.1960906536         2792.9168934247      0.2770000000      14.1962239505      1.2844997530      0.0000000000
1.2120151835         2597.6256831647      0.2790000000      14.1968755380      1.3029911369      0.0000000000
1.2279233547         2417.7950190099      0.2810000000      14.1975924938      1.3215042825      0.0000000000
1.2438097777         2252.0926309029      0.2830000000      14.1983599388      1.3400330250      0.0000000000
1.2596691722         2099.3087478970      0.2850000000      14.1991637581      1.3585712757      0.0000000000
1.2754963743         1958.3434664587      0.2870000000      14.1999905973      1.3771130310      0.0000000000
1.2912863393         1828.1967886790      0.2890000000      14.2008277382      1.3956523762      0.0000000000
1.3070341459         1707.9589636845      0.2910000000      14.2016631877      1.4141834921      0.0000000000
1.3227350002         1596.8020280778      0.2930000000      14.2024855462      1.4327006604      0.0000000000
1.3383842391         1493.9722043035      0.2950000000      14.2032841667      1.4511982691      0.0000000000
1.3539773332         1398.7825637988      0.2970000000      14.2040489292      1.4696708173      0.0000000000
1.3695098882         1310.6071351014      0.2990000000      14.2047703523      1.4881129180      0.0000000000
1.3849776480         1228.8750355283      0.3010000000      14.2054395405      1.5065193034      0.0000000000
1.4003764958         1153.0653692858      0.3030000000      14.2060481518      1.5248848278      0.0000000000
1.4157024557         1082.7026106467      0.3050000000      14.2065883899      1.5432044707      0.0000000000
1.4309516934         1017.3524592311      0.3070000000      14.2070529901      1.5614733397      0.0000000000
1.4461205166          956.6180205923      0.3090000000      14.2074351803      1.5796866723      0.0000000000
1.4612053757          900.1363577781      0.3110000000      14.2077286690      1.5978398383      0.0000000000
1.4762028635          847.5755177921      0.3130000000      14.2079276700      1.6159283417      0.0000000000
1.4911097150          798.6315350570      0.3150000000      14.2080267768      1.6339478217      0.0000000000
1.5059228067          753.0261489259      0.3170000000      14.2080210973      1.6518940539      0.0000000000
1.5206391560          710.5042793509      0.3190000000      14.2079060520      1.6697629508      0.0000000000
1.5352559194          670.8321108390      0.3210000000      14.2076775466      1.6875505624      0.0000000000
1.5497703924          633.7951390120      0.3230000000      14.2073318075      1.7052530768      0.0000000000
1.5641800067          599.1964642619      0.3250000000      14.2068654396      1.7228668193      0.0000000000
1.5784823294          566.8552455744      0.3270000000      14.2062753912      1.7403882530      0.0000000000
1.5926750606          536.6053411916      0.3290000000      14.2055589170      1.7578139773      0.0000000000
1.6067560320          508.2939380180      0.3310000000      14.2047136189      1.7751407285      0.0000000000
1.6207232037          481.7805246206      0.3330000000      14.2037373626      1.7923653771      0.0000000000
1.6345746628          456.9357153621      0.3350000000      14.2026283143      1.8094849283      0.0000000000
1.6483086205          433.6403725893      0.3370000000      14.2013849050      1.8264965196      0.0000000000
1.6619234094          411.7847212310      0.3390000000      14.2000057919      1.8433974196      0.0000000000
1.6754174813          391.2675125249      0.3410000000      14.1984899098      1.8601850266      0.0000000000
1.6887894045          371.9953736664      0.3430000000      14.1968364181      1.8768568669      0.0000000000
1.7020378600          353.8821110090      0.3450000000      14.1950446349      1.8934105920      0.0000000000
1.7151616402          336.8481075512      0.3470000000      14.1931141609      1.9098439779      0.0000000000
1.7281596446          320.8198034303      0.3490000000      14.1910447441      1.9261549221      0.0000000000
1.7410308776          305.7291929023      0.3510000000      14.1888362978      1.9423414413      0.0000000000
1.7537744454          291.5133336151      0.3530000000      14.1864889399      1.9584016698      0.0000000000
1.7663895526          278.1139990522      0.3550000000      14.1840028995      1.9743338562      0.0000000000
1.7788755001          265.4772572312      0.3570000000      14.1813786224      1.9901363621      0.0000000000
1.7912316807          253.5531215709      0.3590000000      14.1786166299      2.0058076584      0.0000000000
1.8034575775          242.2952628490      0.3610000000      14.1757176071      2.0213463237      0.0000000000
1.8155527601          231.6606944320      0.3630000000      14.1726823553      2.0367510411      0.0000000000
1.8275168822          221.6095125346      0.3650000000      14.1695117834      2.0520205968      0.0000000000
1.8393496762          212.1046885725      0.3670000000      14.1662069163      2.0671538737      0.0000000000
1.8510509542          203.1117987876      0.3690000000      14.1627688330      2.0821498538      0.0000000000
1.8626206026          194.5988362012      0.3710000000      14.1591987666      2.0970076132      0.0000000000
1.8740585798          186.5360510662      0.3730000000      14.1554979888      2.1117263188      0.0000000000
1.8853649126          178.8957486172      0.3750000000      14.1516678767      2.1263052262      0.0000000000
1.8965396948          171.6521337641      0.3770000000      14.1477098395      2.1407436775      0.0000000000
1.9075830834          164.7811948130      0.3790000000      14.1436253939      2.1550410980      0.0000000000
1.9184952962          158.2605413915      0.3810000000      14.1394161035      2.1691969939      0.0000000000
1.9292766089          152.0692880004      0.3830000000      14.1350835560      2.1832109492      0.0000000000
1.9399273530          146.1879713876      0.3850000000      14.1306294198      2.1970826239      0.0000000000
1.9504479128          140.5983971702      0.3870000000      14.1260553908      2.2108117506      0.0000000000
1.9608387231          135.2835912588      0.3890000000      14.1213632150      2.2243981325      0.0000000000
1.9711002670          130.2276856184      0.3910000000      14.1165546592      2.2378416409      0.0000000000
1.9812330728          125.4158489050      0.3930000000      14.1116315339      2.2511422122      0.0000000000
1.9912377125          120.8342034325      0.3950000000      14.1065956651      2.2642998461      0.0000000000
2.0011147992          116.4697734141      0.3970000000      14.1014489118      2.2773146026      0.0000000000
2.0108649844          112.3104041592      0.3990000000      14.0961931348      2.2901865998      0.0000000000
2.0204889573          108.3447098034      0.4010000000      14.0908302317      2.3029160125      0.0000000000
2.0299874410          104.5620249015      0.4030000000      14.0853621043      2.3155030684      0.0000000000
2.0393611917          100.9523467360      0.4050000000      14.0797906653      2.3279480471      0.0000000000
2.0486109963           97.5062936127      0.4070000000      14.0741178270      2.3402512770      0.0000000000
2.0577376707           94.2150634493      0.4090000000      14.0683455188      2.3524131341      0.0000000000
2.0667420576           91.0703914662      0.4110000000      14.0624756739      2.3644340392      0.0000000000
2.0756250253           88.0645152281      0.4130000000      14.0565101971      2.3763144561      0.0000000000
2.0843874656           85.1901382352      0.4150000000      14.0504510304      2.3880548900      0.0000000000
2.0930302924           82.4404032655      0.4170000000      14.0443000968      2.3996558850      0.0000000000
2.1015544397           79.8088607644      0.4190000000      14.0380592999      2.4111180223      0.0000000000
2.1099608589           77.2894422683      0.4210000000      14.0317305651      2.4224419163      0.0000000000
2.1182505242           74.8764321145      0.4230000000      14.0253157669      2.4336282225      0.0000000000
2.1264244203           72.5644500191      0.4250000000      14.0188168167      2.4446776209      0.0000000000
2.1344835482           70.3484280086      0.4270000000      14.0122355871      2.4555908240      0.0000000000
2.1424289225           68.2235862791      0.4290000000      14.0055739200      2.4663685733      0.0000000000
2.1502615698           66.1854212660      0.4310000000      13.9988336895      2.4770116371      0.0000000000
2.1579825275           64.2296801710      0.4330000000      13.9920167287      2.4875208094      0.0000000000
2.1655928431           62.3523544050      0.4350000000      13.9851248572      2.4978969083      0.0000000000
2.1730935722           60.5496519703      0.4370000000      13.9781598627      2.5081407744      0.0000000000
2.1804857783           58.8180001359      0.4390000000      13.9711235374      2.5182532694      0.0000000000
