# M(M_sol)                 Lambda          n_Bc(fm^-3)         R(km)            m_B(M_sol)        m_Bquar/M_B
0.1558782373     43189328.5967974067      0.0890000000      23.3730976503      0.1561842397      0.0000000000
0.1623481508     35695354.7475860044      0.0910000000      22.4507074996      0.1627499824      0.0000000000
0.1689029177     29732548.0208473839      0.0930000000      21.6626856853      0.1694077225      0.0000000000
0.1755372245     24934150.6538648270      0.0950000000      20.9827778069      0.1761522323      0.0000000000
0.1822466992     21035920.5708795674      0.0970000000      20.3910422842      0.1829792298      0.0000000000
0.1890277709     17842956.2684253938      0.0990000000      19.8720765261      0.1898852399      0.0000000000
0.1958775541     15208732.3749335129      0.1010000000      19.4138035011      0.1968674789      0.0000000000
0.2027937610     13021417.9436950907      0.1030000000      19.0066293632      0.2039237673      0.0000000000
0.2097746236     11194565.6145084854      0.1050000000      18.6428420549      0.2110524528      0.0000000000
0.2168188346      9660616.8382656500      0.1070000000      18.3161758414      0.2182523517      0.0000000000
0.2239254907      8366277.1648409078      0.1090000000      18.0214920481      0.2255226925      0.0000000000
0.2310940460      7269149.2074246695      0.1110000000      17.7545389060      0.2328630703      0.0000000000
0.2383242740      6335248.9520419659      0.1130000000      17.5117708282      0.2402734086      0.0000000000
0.2455578286      5543037.9480112977      0.1150000000      17.2918971115      0.2476939837      0.0000000000
0.2527057010      4875302.1545480099      0.1170000000      17.0942679604      0.2550333568      0.0000000000
0.2598343643      4303918.7736549787      0.1190000000      16.9141543915      0.2623596262      0.0000000000
0.2669632982      3811422.5415974702      0.1210000000      16.7489438693      0.2696927777      0.0000000000
0.2741032077      3384624.9894747627      0.1230000000      16.5966851687      0.2770438327      0.0000000000
0.2812616696      3013088.6839546119      0.1250000000      16.4558101650      0.2844206287      0.0000000000
0.2884447528      2688381.9324869919      0.1270000000      16.3250207937      0.2918294768      0.0000000000
0.2956576747      2403601.0159261730      0.1290000000      16.2032239272      0.2992758323      0.0000000000
0.3029051205      2153039.6100555710      0.1310000000      16.0894886644      0.3067646213      0.0000000000
0.3101914108      1931943.6198513068      0.1330000000      15.9830147103      0.3143004120      0.0000000000
0.3175206064      1736326.8044863259      0.1350000000      15.8831100677      0.3218875209      0.0000000000
0.3248965612      1562827.0505576755      0.1370000000      15.7891725388      0.3295300673      0.0000000000
0.3323229661      1408593.6459492741      0.1390000000      15.7006751109      0.3372320181      0.0000000000
0.3398033663      1271198.1726845314      0.1410000000      15.6171545201      0.3449972046      0.0000000000
0.3473411817      1148563.4708312815      0.1430000000      15.5382024923      0.3528293438      0.0000000000
0.3549397152      1038904.9630628434      0.1450000000      15.4634571049      0.3607320466      0.0000000000
0.3626021563       940684.0385875539      0.1470000000      15.3925966835      0.3687088209      0.0000000000
0.3703315877       852569.4073615194      0.1490000000      15.3253343804      0.3767630789      0.0000000000
0.3781309845       773405.4066025912      0.1510000000      15.2614137365      0.3848981350      0.0000000000
0.3860032143       702185.7451971195      0.1530000000      15.2006045191      0.3931172068      0.0000000000
0.3939510390       638031.4992098628      0.1550000000      15.1426997148      0.4014234160      0.0000000000
0.4019771104       580172.9763091768      0.1570000000      15.0875125362      0.4098197838      0.0000000000
0.4100839694       527934.3516031509      0.1590000000      15.0348738604      0.4183092297      0.0000000000
0.4182740546       480720.6513588583      0.1610000000      14.9846305574      0.4268945806      0.0000000000
0.4265496610       438007.1605178847      0.1630000000      14.9366432403      0.4355785267      0.0000000000
0.4349129941       399329.7067492885      0.1650000000      14.8907849824      0.4443636784      0.0000000000
0.4433661293       364277.0486879293      0.1670000000      14.8469396747      0.4532525230      0.0000000000
0.4519110194       332484.0166113185      0.1690000000      14.8050008597      0.4622474327      0.0000000000
0.4605494925       303625.8413491821      0.1710000000      14.7648710038      0.4713506613      0.0000000000
0.4692832486       277413.0777769662      0.1730000000      14.7264600908      0.4805643409      0.0000000000
0.4781138573       253587.3844480921      0.1750000000      14.6896851492      0.4898904788      0.0000000000
0.4870427562       231917.7459438774      0.1770000000      14.6544692442      0.4993309551      0.0000000000
0.4960712469       212197.3641725093      0.1790000000      14.6207409996      0.5088875182      0.0000000000
0.5052004977       194240.8234227209      0.1810000000      14.5884342745      0.5185617875      0.0000000000
0.5144315344       177881.6484826894      0.1830000000      14.5574870062      0.5283552419      0.0000000000
0.5237652387       162970.1833687186      0.1850000000      14.5278414584      0.5382692190      0.0000000000
0.5332023716       149371.6976155732      0.1870000000      14.4994431759      0.5483049380      0.0000000000
0.5427435300       136964.8598975632      0.1890000000      14.4722412111      0.5584634537      0.0000000000
0.5523891748       125640.2217985460      0.1910000000      14.4461874317      0.5687456855      0.0000000000
0.5621396238       115298.9737256612      0.1930000000      14.4212365009      0.5791524088      0.0000000000
0.5719950486       105851.8084290211      0.1950000000      14.3973451813      0.5896842510      0.0000000000
0.5819554788        97217.9928378404      0.1970000000      14.3744727584      0.6003416956      0.0000000000
0.5920207966        89324.4380430401      0.1990000000      14.3525801344      0.6111250749      0.0000000000
0.6021907441        82104.9381146051      0.2010000000      14.3316303155      0.6220345775      0.0000000000
0.6124649178        75499.4820945597      0.2030000000      14.3115877128      0.6330702410      0.0000000000
0.6228427724        69453.6588714168      0.2050000000      14.2924183350      0.6442319556      0.0000000000
0.6333236224        63918.0604307560      0.2070000000      14.2740894396      0.6555194642      0.0000000000
0.6439066425        58847.8441522533      0.2090000000      14.2565696635      0.6669323627      0.0000000000
0.6545908721        54202.2598361468      0.2110000000      14.2398287115      0.6784701030      0.0000000000
0.6653752097        49944.2532939248      0.2130000000      14.2238373246      0.6901319865      0.0000000000
0.6762584261        46040.1483919008      0.2150000000      14.2085673011      0.7019171768      0.0000000000
0.6872391604        42459.2840828297      0.2170000000      14.1939912388      0.7138246948      0.0000000000
0.6983159231        39173.7657005507      0.2190000000      14.1800826850      0.7258534205      0.0000000000
0.7094871011        36158.1880689000      0.2210000000      14.1668159047      0.7380020975      0.0000000000
0.7207509606        33389.4046275939      0.2230000000      14.1541659609      0.7502693353      0.0000000000
0.7321056494        30846.3297780451      0.2250000000      14.1421085714      0.7626536104      0.0000000000
0.7435492014        28509.7399616261      0.2270000000      14.1306201216      0.7751532700      0.0000000000
0.7550795417        26362.1047811439      0.2290000000      14.1196776891      0.7877665369      0.0000000000
0.7666944882        24387.4369525756      0.2310000000      14.1092588501      0.8004915094      0.0000000000
0.7783917593        22571.1456766878      0.2330000000      14.0993419084      0.8133261694      0.0000000000
0.7901689743        20899.9181897818      0.2350000000      14.0899055508      0.8262683813      0.0000000000
0.8020236615        19361.5979485795      0.2370000000      14.0809291342      0.8393159000      0.0000000000
0.8139532614        17945.0841468244      0.2390000000      14.0723925191      0.8524663733      0.0000000000
0.8259551304        16640.2394476485      0.2410000000      14.0642760226      0.8657173449      0.0000000000
0.8380265487        15437.7965848526      0.2430000000      14.0565604564      0.8790662620      0.0000000000
0.8501647221        14329.2909470975      0.2450000000      14.0492271882      0.8925104767      0.0000000000
0.8623667892        13306.9820513222      0.2470000000      14.0422580196      0.9060472527      0.0000000000
0.8746298257        12363.7920623950      0.2490000000      14.0356352330      0.9196737689      0.0000000000
0.8869508490        11493.2480351610      0.2510000000      14.0293415425      0.9333871242      0.0000000000
0.8993268244        10689.4271607062      0.2530000000      14.0233601168      0.9471843432      0.0000000000
0.9117546698         9946.9107105283      0.2550000000      14.0176746174      0.9610623803      0.0000000000
0.9242312603         9260.7376982811      0.2570000000      14.0122690935      0.9750181248      0.0000000000
0.9367534350         8626.3663049348      0.2590000000      14.0071281024      0.9890484070      0.0000000000
0.9493179992         8039.6354979462      0.2610000000      14.0022365365      1.0031500008      0.0000000000
0.9619217316         7496.7365324309      0.2630000000      13.9975797628      1.0173196299      0.0000000000
0.9745613898         6994.1764476617      0.2650000000      13.9931436262      1.0315539748      0.0000000000
0.9872337130         6528.7551567422      0.2670000000      13.9889142829      1.0458496741      0.0000000000
0.9999354286         6097.5376770569      0.2690000000      13.9848783967      1.0602033320      0.0000000000
1.0126632556         5697.8335053902      0.2710000000      13.9810229800      1.0746115218      0.0000000000
1.0254139108         5327.1733409161      0.2730000000      13.9773354831      1.0890707918      0.0000000000
1.0381841115         4983.2919169019      0.2750000000      13.9738037423      1.1035776689      0.0000000000
1.0509705810         4664.1099078881      0.2770000000      13.9704159997      1.1181286637      0.0000000000
1.0637700524         4367.7177085780      0.2790000000      13.9671608350      1.1327202754      0.0000000000
1.0765792734         4092.3617178501      0.2810000000      13.9640273147      1.1473489960      0.0000000000
1.0893950094         3836.4305967235      0.2830000000      13.9610048189      1.1620113145      0.0000000000
1.1022140474         3598.4436307069      0.2850000000      13.9580830815      1.1767037212      0.0000000000
1.1150332006         3377.0395130456      0.2870000000      13.9552522748      1.1914227122      0.0000000000
1.1278493103         3170.9662804308      0.2890000000      13.9525028729      1.2061647924      0.0000000000
1.1406592512         2979.0720816954      0.2910000000      13.9498257500      1.2209264812      0.0000000000
1.1534599328         2800.2971388872      0.2930000000      13.9472121079      1.2357043140      0.0000000000
1.1662483040         2633.6655906850      0.2950000000      13.9446534725      1.2504948478      0.0000000000
1.1790213543         2478.2790669631      0.2970000000      13.9421417626      1.2652946631      0.0000000000
1.1917761184         2333.3098172395      0.2990000000      13.9396692166      1.2801003688      0.0000000000
1.2045096770         2197.9948806629      0.3010000000      13.9372283321      1.2949086036      0.0000000000
1.2172191604         2071.6313454865      0.3030000000      13.9348120361      1.3097160407      0.0000000000
1.2299017498         1953.5707172696      0.3050000000      13.9324134653      1.3245193895      0.0000000000
1.2425546814         1843.2146388718      0.3070000000      13.9300260980      1.3393154002      0.0000000000
1.2551752432         1740.0111962080      0.3090000000      13.9276437336      1.3541008613      0.0000000000
1.2677607834         1643.4506769936      0.3110000000      13.9252604622      1.3688726095      0.0000000000
1.2803087080         1553.0623284813      0.3130000000      13.9228706346      1.3836275268      0.0000000000
1.2928164824         1468.4112802839      0.3150000000      13.9204688499      1.3983625438      0.0000000000
1.3052816341         1389.0956449434      0.3170000000      13.9180500211      1.4130746426      0.0000000000
1.3177017526         1314.7437822281      0.3190000000      13.9156093481      1.4277608576      0.0000000000
1.3300744908         1245.0118544601      0.3210000000      13.9131421926      1.4424182777      0.0000000000
1.3423975659         1179.5819002991      0.3230000000      13.9106442529      1.4570440478      0.0000000000
1.3546687603         1118.1594491920      0.3250000000      13.9081114542      1.4716353704      0.0000000000
1.3668859216         1060.4718168999      0.3270000000      13.9055398689      1.4861895064      0.0000000000
1.3790469637         1006.2664674053      0.3290000000      13.9029259168      1.5007037768      0.0000000000
1.3911498669          955.3092603296      0.3310000000      13.9002661784      1.5151755638      0.0000000000
1.4031926774          907.3832159311      0.3330000000      13.8975573946      1.5296023104      0.0000000000
1.4151735092          862.2869846256      0.3350000000      13.8947966216      1.5439815239      0.0000000000
1.4270905419          819.8338490000      0.3370000000      13.8919810373      1.5583107735      0.0000000000
1.4389420224          779.8503654388      0.3390000000      13.8891080128      1.5725876929      0.0000000000
1.4507262635          742.1755926120      0.3410000000      13.8861751353      1.5868099799      0.0000000000
1.4624416445          706.6599428142      0.3430000000      13.8831801740      1.6009753973      0.0000000000
1.4740866101          673.1643826833      0.3450000000      13.8801210005      1.6150817724      0.0000000000
1.4856596703          641.5597521268      0.3470000000      13.8769957471      1.6291269976      0.0000000000
1.4971594001          611.7257661227      0.3490000000      13.8738026208      1.6431090308      0.0000000000
1.5085844384          583.5506374137      0.3510000000      13.8705400477      1.6570258946      0.0000000000
1.5199334874          556.9302166502      0.3530000000      13.8672065696      1.6708756764      0.0000000000
1.5312053124          531.7675570537      0.3550000000      13.8638008493      1.6846565289      0.0000000000
1.5423987403          507.9723289690      0.3570000000      13.8603217348      1.6983666688      0.0000000000
1.5535126593          485.4603508200      0.3590000000      13.8567681587      1.7120043771      0.0000000000
1.5645460174          464.1531328353      0.3610000000      13.8531391957      1.7255679981      0.0000000000
1.5754978223          443.9774484774      0.3630000000      13.8494340403      1.7390559399      0.0000000000
1.5863671398          424.8649996385      0.3650000000      13.8456519977      1.7524666729      0.0000000000
1.5971530926          406.7520139970      0.3670000000      13.8417924880      1.7657987293      0.0000000000
1.6078548607          389.5789284771      0.3690000000      13.8378550205      1.7790507041      0.0000000000
1.6184716767          373.2900942736      0.3710000000      13.8338392174      1.7922212498      0.0000000000
1.6290028295          357.8335232045      0.3730000000      13.8297447928      1.8053090818      0.0000000000
1.6394476602          343.1605774252      0.3750000000      13.8255715268      1.8183129736      0.0000000000
1.6498055614          329.2257976682      0.3770000000      13.8213193286      1.8312317569      0.0000000000
1.6600759763          315.9866088813      0.3790000000      13.8169881581      1.8440643211      0.0000000000
1.6702583973          303.4031857918      0.3810000000      13.8125780522      1.8568096119      0.0000000000
1.6803523651          291.4382104896      0.3830000000      13.8080891387      1.8694666304      0.0000000000
1.6903574671          280.0567405536      0.3850000000      13.8035215892      1.8820344328      0.0000000000
1.7002733366          269.2260163118      0.3870000000      13.7988756737      1.8945121284      0.0000000000
1.7100996513          258.9153193244      0.3890000000      13.7941516732      1.9068988794      0.0000000000
1.7198361321          249.0958499354      0.3910000000      13.7893499876      1.9191938997      0.0000000000
1.7294825422          239.7405744737      0.3930000000      13.7844710435      1.9313964537      0.0000000000
1.7390386852          230.8241328193      0.3950000000      13.7795152895      1.9435058550      0.0000000000
1.7485044048          222.3226850628      0.3970000000      13.7744832808      1.9555214662      0.0000000000
1.7578795828          214.2138560811      0.3990000000      13.7693755848      1.9674426969      0.0000000000
1.7671641385          206.4766125654      0.4010000000      13.7641928165      1.9792690033      0.0000000000
1.7763580270          199.0911966696      0.4030000000      13.7589356244      1.9909998863      0.0000000000
1.7854612384          192.0389883204      0.4050000000      13.7536046970      2.0026348916      0.0000000000
1.7944737964          185.3025137410      0.4070000000      13.7482007712      2.0141736075      0.0000000000
1.8033957576          178.8653016590      0.4090000000      13.7427246137      2.0256156646      0.0000000000
1.8122272096          172.7118451732      0.4110000000      13.7371769960      2.0369607340      0.0000000000
1.8209682706          166.8275500944      0.4130000000      13.7315587483      2.0482085270      0.0000000000
1.8296190880          161.1986623983      0.4150000000      13.7258707133      2.0593587935      0.0000000000
1.8381798371          155.8122115482      0.4170000000      13.7201137663      2.0704113208      0.0000000000
1.8466507205          150.6559682558      0.4190000000      13.7142887748      2.0813659333      0.0000000000
1.8550319667          145.7184070153      0.4210000000      13.7083966658      2.0922224905      0.0000000000
1.8633238292          140.9886500525      0.4230000000      13.7024383662      2.1029808865      0.0000000000
1.8715265857          136.4564137482      0.4250000000      13.6964148063      2.1136410493      0.0000000000
1.8796405362          132.1120150983      0.4270000000      13.6903269529      2.1242029386      0.0000000000
1.8876660036          127.9462892254      0.4290000000      13.6841757766      2.1346665462      0.0000000000
1.8956033313          123.9505794640      0.4310000000      13.6779622660      2.1450318940      0.0000000000
1.9034528829          120.1167064986      0.4330000000      13.6716873896      2.1552990335      0.0000000000
1.9112150415          116.4369308417      0.4350000000      13.6653521781      2.1654680446      0.0000000000
1.9188902082          112.9039400888      0.4370000000      13.6589576274      2.1755390348      0.0000000000
1.9264788018          109.5108119806      0.4390000000      13.6525047554      2.1855121382      0.0000000000
1.9339812577          106.2509889083      0.4410000000      13.6459945679      2.1953875143      0.0000000000
1.9413980270          103.1182662699      0.4430000000      13.6394281132      2.2051653480      0.0000000000
1.9487295760          100.1067706898      0.4450000000      13.6328064053      2.2148458475      0.0000000000
1.9559763850           97.2109367909      0.4470000000      13.6261304737      2.2244292440      0.0000000000
