# M(M_sol)                 Lambda          n_Bc(fm^-3)         R(km)            m_B(M_sol)        m_Bquar/M_B
0.1508163120     27897820.8297698386      0.1310000000      20.8496412160      0.1510085710      0.0000000000
0.1546335616     24355970.2212158255      0.1330000000      20.2773780780      0.1548771783      0.0000000000
0.1585776509     21283080.3098436967      0.1350000000      19.7498868784      0.1588767278      0.0000000000
0.1626514456     18612625.7656938732      0.1370000000      19.2627177613      0.1630103555      0.0000000000
0.1668577873     16288733.7719662320      0.1390000000      18.8120014053      0.1672811868      0.0000000000
0.1711994516     14264155.2859460413      0.1410000000      18.3943534816      0.1716922945      0.0000000000
0.1756791562     12498664.0575245414      0.1430000000      18.0067989301      0.1762467072      0.0000000000
0.1802995469     10957864.3466738258      0.1450000000      17.6467111893      0.1809473958      0.0000000000
0.1850632073      9612216.0466244314      0.1470000000      17.3117602711      0.1857972831      0.0000000000
0.1899726380      8436279.6232175883      0.1490000000      16.9998727919      0.1907992229      0.0000000000
0.1950302620      7408078.4108451083      0.1510000000      16.7091948080      0.1959560062      0.0000000000
0.2002383844      6508597.1540538594      0.1530000000      16.4380645731      0.2012703197      0.0000000000
0.2055992408      5721346.4964579744      0.1550000000      16.1849865501      0.2067447952      0.0000000000
0.2111149340      5032007.2085758941      0.1570000000      15.9486096828      0.2123819458      0.0000000000
0.2167874794      4428138.8091725791      0.1590000000      15.7277128348      0.2181842113      0.0000000000
0.2226187467      3898912.1644718666      0.1610000000      15.5211853895      0.2241538996      0.0000000000
0.2286105010      3434901.6541181323      0.1630000000      15.3280180182      0.2302932270      0.0000000000
0.2347643662      3027891.8121871292      0.1650000000      15.1472883365      0.2366042828      0.0000000000
0.2410818312      2670723.0183175891      0.1670000000      14.9781534232      0.2430890334      0.0000000000
0.2475642567      2357150.3550961548      0.1690000000      14.8198410892      0.2497493299      0.0000000000
0.2542128317      2081723.1228956170      0.1710000000      14.6716392811      0.2565868634      0.0000000000
0.2610286251      1839685.9135329754      0.1730000000      14.5328953760      0.2636032168      0.0000000000
0.2680125445      1626885.4102958040      0.1750000000      14.4030059884      0.2707998224      0.0000000000
0.2751653207      1439694.1521789522      0.1770000000      14.2814126265      0.2781779457      0.0000000000
0.2824875641      1274943.9821281917      0.1790000000      14.1676005934      0.2857387423      0.0000000000
0.2899796961      1129865.1991166736      0.1810000000      14.0610905050      0.2934831870      0.0000000000
0.2976419824      1002037.2734121737      0.1830000000      13.9614379239      0.3014121072      0.0000000000
0.3054745306       889343.7674715813      0.1850000000      13.8682297187      0.3095261796      0.0000000000
0.3134772744       789933.4163648320      0.1870000000      13.7810804680      0.3178259132      0.0000000000
0.3216499919       702186.6623568480      0.1890000000      13.6996314218      0.3263116678      0.0000000000
0.3299922853       624686.2345571942      0.1910000000      13.6235469789      0.3349836310      0.0000000000
0.3385035979       556191.3878775410      0.1930000000      13.5525138487      0.3438418356      0.0000000000
0.3471831944       495615.3666032770      0.1950000000      13.4862378196      0.3528861382      0.0000000000
0.3560301930       442006.4481176094      0.1970000000      13.4244445722      0.3621162507      0.0000000000
0.3650435348       394530.3742540402      0.1990000000      13.3668757942      0.3715317084      0.0000000000
0.3742220042       352455.8236538041      0.2010000000      13.3132894098      0.3811318893      0.0000000000
0.3835642256       315141.3929846309      0.2030000000      13.2634579494      0.3909160099      0.0000000000
0.3930686580       282024.2017613279      0.2050000000      13.2171668067      0.4008831181      0.0000000000
0.4027336221       252610.3240651170      0.2070000000      13.1742154000      0.4110321202      0.0000000000
0.4125572632       226465.7633419158      0.2090000000      13.1344129603      0.4213617414      0.0000000000
0.4225375996       203209.3785183215      0.2110000000      13.0975812980      0.4318705741      0.0000000000
0.4326724903       182506.0040438621      0.2130000000      13.0635513978      0.4425570440      0.0000000000
0.4429596584       164060.8904586318      0.2150000000      13.0321640562      0.4534194325      0.0000000000
0.4533966835       147614.6103419129      0.2170000000      13.0032684173      0.4644558674      0.0000000000
0.4639810207       132938.8039062747      0.2190000000      12.9767227581      0.4756643418      0.0000000000
0.4747099907       119832.2737884061      0.2210000000      12.9523925797      0.4870427024      0.0000000000
0.4855807926       108117.6501772393      0.2230000000      12.9301508158      0.4985886614      0.0000000000
0.4965905016        97638.4752515160      0.2250000000      12.9098768124      0.5102997930      0.0000000000
0.5077360828        88256.7038384055      0.2270000000      12.8914567265      0.5221735463      0.0000000000
0.5190143970        79850.4308153289      0.2290000000      12.8747829980      0.5342072504      0.0000000000
0.5304221982        72311.9218226786      0.2310000000      12.8597534699      0.5463981107      0.0000000000
0.5419561374        65545.9029600524      0.2330000000      12.8462708923      0.5587432110      0.0000000000
0.5536127777        59468.0917649485      0.2350000000      12.8342434040      0.5712395292      0.0000000000
0.5653886012        54003.8765392705      0.2370000000      12.8235842573      0.5838839421      0.0000000000
0.5772800052        49087.1485662513      0.2390000000      12.8142109227      0.5966732219      0.0000000000
0.5892833073        44659.2830907227      0.2410000000      12.8060446079      0.6096040391      0.0000000000
0.6013947661        40668.2916201110      0.2430000000      12.7990113977      0.6226729840      0.0000000000
0.6136105676        37067.9979164908      0.2450000000      12.7930402591      0.6358765513      0.0000000000
0.6259268477        33817.3970757516      0.2470000000      12.7880644575      0.6492111628      0.0000000000
0.6383396944        30880.0354686036      0.2490000000      12.7840208301      0.6626731691      0.0000000000
0.6508451374        28223.4557816157      0.2510000000      12.7808483018      0.6762588374      0.0000000000
0.6634391796        25818.7902051976      0.2530000000      12.7784900579      0.6899643842      0.0000000000
0.6761177856        23640.3015655401      0.2550000000      12.7768915943      0.7037859628      0.0000000000
0.6888768909        21665.0494930179      0.2570000000      12.7760012728      0.7177196719      0.0000000000
0.7017124091        19872.5616338309      0.2590000000      12.7757700003      0.7317615624      0.0000000000
0.7146202376        18244.5592505496      0.2610000000      12.7761512028      0.7459076438      0.0000000000
0.7275962626        16764.7085423131      0.2630000000      12.7771007446      0.7601538884      0.0000000000
0.7406363679        15418.4047476918      0.2650000000      12.7785766330      0.7744962402      0.0000000000
0.7537364197        14192.5769477812      0.2670000000      12.7805390023      0.7889305984      0.0000000000
0.7668923069        13075.5198215579      0.2690000000      12.7829501649      0.8034528602      0.0000000000
0.7800999190        12056.7429418281      0.2710000000      12.7857742258      0.8180588971      0.0000000000
0.7933551577        11126.8353592539      0.2730000000      12.7889769482      0.8327445666      0.0000000000
0.8066539484        10277.3548361662      0.2750000000      12.7925264454      0.8475057245      0.0000000000
0.8199922304         9500.7120713059      0.2770000000      12.7963916598      0.8623382146      0.0000000000
0.8333659758         8790.0896254416      0.2790000000      12.8005437272      0.8772378887      0.0000000000
0.8467711873         8139.3549770560      0.2810000000      12.8049553709      0.8922006042      0.0000000000
0.8602038969         7542.9840917403      0.2830000000      12.8096001758      0.9072222229      0.0000000000
0.8736601793         6996.0031030362      0.2850000000      12.8144536101      0.9222986253      0.0000000000
0.8871361480         6493.9258470785      0.2870000000      12.8194921479      0.9374257070      0.0000000000
0.9006279642         6032.7066036999      0.2890000000      12.8246937854      0.9525993878      0.0000000000
0.9141318335         5608.6903898946      0.2910000000      12.8300373147      0.9678156092      0.0000000000
0.9276440173         5218.5770315670      0.2930000000      12.8355031656      0.9830703462      0.0000000000
0.9411608286         4859.3813699751      0.2950000000      12.8410726354      0.9983596038      0.0000000000
0.9546786334         4528.4004742993      0.2970000000      12.8467276227      1.0136794186      0.0000000000
0.9681938636         4223.1898530908      0.2990000000      12.8524517911      1.0290258728      0.0000000000
0.9817030058         3941.5316162492      0.3010000000      12.8582290497      1.0443950834      0.0000000000
0.9952026161         3681.4166695753      0.3030000000      12.8640448060      1.0597832177      0.0000000000
1.0086893102         3441.0197477273      0.3050000000      12.8698847579      1.0751864841      0.0000000000
1.0221597752         3218.6847999164      0.3070000000      12.8757358528      1.0906011445      0.0000000000
1.0356107632         3012.9056841457      0.3090000000      12.8815854862      1.1060235087      0.0000000000
1.0490390978         2822.3131335605      0.3110000000      12.8874218989      1.1214499413      0.0000000000
1.0624416770         2645.6615921891      0.3130000000      12.8932343616      1.1368768667      0.0000000000
1.0758154657         2481.8154192395      0.3150000000      12.8990122467      1.1523007600      0.0000000000
1.0891575055         2329.7406220241      0.3170000000      12.9047459146      1.1677181596      0.0000000000
1.1024649131         2188.4941139377      0.3190000000      12.9104264031      1.1831256654      0.0000000000
1.1157348777         2057.2148425765      0.3210000000      12.9160450574      1.1985199372      0.0000000000
1.1289646658         1935.1168179657      0.3230000000      12.9215940329      1.2138977003      0.0000000000
1.1421516186         1821.4813984850      0.3250000000      12.9270657337      1.2292557434      0.0000000000
1.1552931543         1715.6519948710      0.3270000000      12.9324534181      1.2445909220      0.0000000000
1.1683867693         1617.0275363419      0.3290000000      12.9377507626      1.2599001602      0.0000000000
1.1814300301         1525.0569255652      0.3310000000      12.9429513117      1.2751804428      0.0000000000
1.1944205886         1439.2363871215      0.3330000000      12.9480499522      1.2904288331      0.0000000000
1.2073561682         1359.1034129255      0.3350000000      12.9530414982      1.3056424575      0.0000000000
1.2202345665         1284.2333987849      0.3370000000      12.9579209861      1.3208185100      0.0000000000
1.2330536610         1214.2370229894      0.3390000000      12.9626842039      1.3359542590      0.0000000000
1.2458114023         1148.7563726421      0.3410000000      12.9673271007      1.3510470406      0.0000000000
1.2585058171         1087.4626151531      0.3430000000      12.9718460999      1.3660942625      0.0000000000
1.2711350032         1030.0528899908      0.3450000000      12.9762375746      1.3810933991      0.0000000000
1.2836971372          976.2490298241      0.3470000000      12.9804988023      1.3960420013      0.0000000000
1.2961904649          925.7944648124      0.3490000000      12.9846269256      1.4109376860      0.0000000000
1.3086133033          878.4526585527      0.3510000000      12.9886192940      1.4257781394      0.0000000000
1.3209640445          834.0058753521      0.3530000000      12.9924739411      1.4405611219      0.0000000000
1.3332411469          792.2529057258      0.3550000000      12.9961886956      1.4552844591      0.0000000000
1.3454431416          753.0082225786      0.3570000000      12.9997620200      1.4699460494      0.0000000000
1.3575686242          716.1001362427      0.3590000000      13.0031921245      1.4845438556      0.0000000000
1.3696162619          681.3703193877      0.3610000000      13.0064779688      1.4990759139      0.0000000000
1.3815847844          648.6720556772      0.3630000000      13.0096182940      1.5135403240      0.0000000000
1.3934729895          617.8697831664      0.3650000000      13.0126123416      1.5279352559      0.0000000000
1.4052797354          588.8377598172      0.3670000000      13.0154591612      1.5422589422      0.0000000000
1.4170039466          561.4597044210      0.3690000000      13.0181583600      1.5565096852      0.0000000000
1.4286446066          535.6277209269      0.3710000000      13.0207094784      1.5706858493      0.0000000000
1.4402007604          511.2417604417      0.3730000000      13.0231122908      1.5847858646      0.0000000000
1.4516715107          488.2089194115      0.3750000000      13.0253665823      1.5988082226      0.0000000000
1.4630560200          466.4430635290      0.3770000000      13.0274725236      1.6127514799      0.0000000000
1.4743535050          445.8640470030      0.3790000000      13.0294301532      1.6266142521      0.0000000000
1.4855632395          426.3974513310      0.3810000000      13.0312398354      1.6403952172      0.0000000000
1.4966845489          407.9739820955      0.3830000000      13.0329018103      1.6540931106      0.0000000000
1.5077168133          390.5292521937      0.3850000000      13.0344166571      1.6677067287      0.0000000000
1.5186594631          374.0032749908      0.3870000000      13.0357849550      1.6812349242      0.0000000000
1.5295119783          358.3401634987      0.3890000000      13.0370073412      1.6946766065      0.0000000000
1.5402738884          343.4878441347      0.3910000000      13.0380846157      1.7080307408      0.0000000000
1.5509447694          329.3977677755      0.3930000000      13.0390176133      1.7212963468      0.0000000000
1.5615242437          316.0246321275      0.3950000000      13.0398072566      1.7344724974      0.0000000000
1.5720119781          303.3261424331      0.3970000000      13.0404544963      1.7475583176      0.0000000000
1.5824076830          291.2628187740      0.3990000000      13.0409603962      1.7605529842      0.0000000000
1.5927111112          279.7977614396      0.4010000000      13.0413260889      1.7734557240      0.0000000000
1.6029220561          268.8964968542      0.4030000000      13.0415527455      1.7862658129      0.0000000000
1.6130403504          258.5267533725      0.4050000000      13.0416415484      1.7989825744      0.0000000000
1.6230658662          248.6583710111      0.4070000000      13.0415938251      1.8116053797      0.0000000000
1.6329985117          239.2630871893      0.4090000000      13.0414108578      1.8241336450      0.0000000000
1.6428382318          230.3144502242      0.4110000000      13.0410940327      1.8365668318      0.0000000000
1.6525850055          221.7876573335      0.4130000000      13.0406446879      1.8489044444      0.0000000000
1.6622388460          213.6594693170      0.4150000000      13.0400642879      1.8611460306      0.0000000000
1.6717997987          205.9080982799      0.4170000000      13.0393542894      1.8732911792      0.0000000000
1.6812679400          198.5130847510      0.4190000000      13.0385161671      1.8853395190      0.0000000000
1.6906433770          191.4552243666      0.4210000000      13.0375514252      1.8972907187      0.0000000000
1.6999262455          184.7165011733      0.4230000000      13.0364616142      1.9091444850      0.0000000000
1.7091167095          178.2799694841      0.4250000000      13.0352482875      1.9209005618      0.0000000000
1.7182149597          172.1297021303      0.4270000000      13.0339129987      1.9325587291      0.0000000000
1.7272212130          166.2507332963      0.4290000000      13.0324573543      1.9441188021      0.0000000000
1.7361357109          160.6289747074      0.4310000000      13.0308829427      1.9555806303      0.0000000000
1.7449587189          155.2511689888      0.4330000000      13.0291913763      1.9669440959      0.0000000000
1.7536905253          150.1048351413      0.4350000000      13.0273842804      1.9782091135      0.0000000000
1.7623314407          145.1782138519      0.4370000000      13.0254632725      1.9893756289      0.0000000000
1.7708817962          140.4602297391      0.4390000000      13.0234300002      2.0004436178      0.0000000000
1.7793419434          135.9404343005      0.4410000000      13.0212860865      2.0114130856      0.0000000000
1.7877122529          131.6089793702      0.4430000000      13.0190331810      2.0222840656      0.0000000000
1.7959931138          127.4565703642      0.4450000000      13.0166729224      2.0330566186      0.0000000000
1.8041849325          123.4744391265      0.4470000000      13.0142069579      2.0437308318      0.0000000000
1.8122881325          119.6542962321      0.4490000000      13.0116369080      2.0543068184      0.0000000000
1.8203031527          115.9883284529      0.4510000000      13.0089644396      2.0647847160      0.0000000000
1.8282304475          112.4691318616      0.4530000000      13.0061911536      2.0751646861      0.0000000000
1.8360704852          109.0897290317      0.4550000000      13.0033187111      2.0854469131      0.0000000000
1.8438237481          105.8435051729      0.4570000000      13.0003487086      2.0956316040      0.0000000000
1.8514907313          102.7242106197      0.4590000000      12.9972827733      2.1057189869      0.0000000000
1.8590719419           99.7259305669      0.4610000000      12.9941225195      2.1157093106      0.0000000000
1.8665678986           96.8430577419      0.4630000000      12.9908695233      2.1256028438      0.0000000000
1.8739791312           94.0702948250      0.4650000000      12.9875254036      2.1353998743      0.0000000000
1.8813061793           91.4026125865      0.4670000000      12.9840917256      2.1451007082      0.0000000000
1.8885495924           88.8352507337      0.4690000000      12.9805700800      2.1547056693      0.0000000000
1.8957099288           86.3636917889      0.4710000000      12.9769620011      2.1642150982      0.0000000000
1.9027877554           83.9836510366      0.4730000000      12.9732690373      2.1736293519      0.0000000000
1.9097836467           81.6910692617      0.4750000000      12.9694927391      2.1829488026      0.0000000000
1.9166981848           79.4820887386      0.4770000000      12.9656346177      2.1921738381      0.0000000000
1.9235319583           77.3530493277      0.4790000000      12.9616961838      2.2013048597      0.0000000000
1.9302855623           75.3004762706      0.4810000000      12.9576789541      2.2103422828      0.0000000000
1.9369595974           73.3210616653      0.4830000000      12.9535843649      2.2192865356      0.0000000000
1.9435546699           71.4116720309      0.4850000000      12.9494139318      2.2281380590      0.0000000000
1.9500713905           69.5693209688      0.4870000000      12.9451690690      2.2368973053      0.0000000000
1.9565103747           67.7911709016      0.4890000000      12.9408512316      2.2455647386      0.0000000000
