# M(M_sol)                 Lambda          n_Bc(fm^-3)         R(km)            m_B(M_sol)        m_Bquar/M_B
0.1531498553     32825846.8864072412      0.1150000000      21.7903158972      0.1533798465      0.0000000000
0.1573314274     28509281.7443394922      0.1170000000      21.1624399191      0.1576187976      0.0000000000
0.1615640276     24854391.0059646182      0.1190000000      20.5979232980      0.1619121171      0.0000000000
0.1658619718     21732539.7252260856      0.1210000000      20.0862445579      0.1662744292      0.0000000000
0.1702307347     19051253.4508144781      0.1230000000      19.6200395401      0.1707114136      0.0000000000
0.1746737034     16738353.1460208613      0.1250000000      19.1934809725      0.1752266443      0.0000000000
0.1791934162     14735976.9656406399      0.1270000000      18.8017918360      0.1798228424      0.0000000000
0.1837919878     12996983.7845570650      0.1290000000      18.4409811007      0.1845023079      0.0000000000
0.1884713066     11482538.8438186478      0.1310000000      18.1076729031      0.1892671179      0.0000000000
0.1932331211     10160369.1621800940      0.1330000000      17.7989844287      0.1941192149      0.0000000000
0.1980790891      9003469.1063816827      0.1350000000      17.5124350009      0.1990604569      0.0000000000
0.2030108081      7989102.1615004325      0.1370000000      17.2458753719      0.2040926476      0.0000000000
0.2080298273      7098033.3655211441      0.1390000000      16.9974339242      0.2092175492      0.0000000000
0.2131376554      6313910.3591390513      0.1410000000      16.7654707987      0.2144368902      0.0000000000
0.2183357671      5622784.0795316026      0.1430000000      16.5485437852      0.2197523720      0.0000000000
0.2236255991      5012705.0485291900      0.1450000000      16.3453777969      0.2251656652      0.0000000000
0.2290085552      4473409.5993140535      0.1470000000      16.1548419428      0.2306784141      0.0000000000
0.2344860004      3996052.5012737806      0.1490000000      15.9759289260      0.2362922318      0.0000000000
0.2400592684      3572991.6984236129      0.1510000000      15.8077380215      0.2420087071      0.0000000000
0.2457296275      3197610.0746430364      0.1530000000      15.6494624480      0.2478293699      0.0000000000
0.2514983229      2864159.7146985023      0.1550000000      15.5003754499      0.2537557344      0.0000000000
0.2573665448      2567642.7786996313      0.1570000000      15.3598217294      0.2597892665      0.0000000000
0.2633354312      2303700.8570120810      0.1590000000      15.2272081799      0.2659313867      0.0000000000
0.2694060652      2068528.2330835543      0.1610000000      15.1019966665      0.2721834673      0.0000000000
0.2755794741      1858794.9510342609      0.1630000000      14.9836973271      0.2785468309      0.0000000000
0.2818566198      1671582.6445766771      0.1650000000      14.8718636378      0.2850227414      0.0000000000
0.2882384046      1504330.7035484363      0.1670000000      14.7660873099      0.2916124088      0.0000000000
0.2947256616      1354787.2631598713      0.1690000000      14.6659937444      0.2983169800      0.0000000000
0.3013191506      1220971.4457378255      0.1710000000      14.5712394285      0.3051375340      0.0000000000
0.3080195737      1101136.8702339039      0.1730000000      14.4815076706      0.3120750977      0.0000000000
0.3148275426       993742.3908238286      0.1750000000      14.3965063831      0.3191306125      0.0000000000
0.3217435991       897426.8311906662      0.1770000000      14.3159657775      0.3263049545      0.0000000000
0.3287682061       810986.1542020458      0.1790000000      14.2396356964      0.3335989254      0.0000000000
0.3359017429       733354.2343787848      0.1810000000      14.1672840841      0.3410132476      0.0000000000
0.3431445102       663586.5132805331      0.1830000000      14.0986952709      0.3485485680      0.0000000000
0.3504967215       600844.7126220095      0.1850000000      14.0336681760      0.3562054503      0.0000000000
0.3579585069       544384.8095253084      0.1870000000      13.9720154737      0.3639843770      0.0000000000
0.3655299082       493545.2758247844      0.1890000000      13.9135617283      0.3718857454      0.0000000000
0.3732108821       447737.9681654871      0.1910000000      13.8581429814      0.3799098692      0.0000000000
0.3810012931       406439.0870430085      0.1930000000      13.8056054683      0.3880569718      0.0000000000
0.3889009210       369182.2663382560      0.1950000000      13.7558048547      0.3963271929      0.0000000000
0.3969094531       335551.4656496756      0.1970000000      13.7086052898      0.4047205801      0.0000000000
0.4050264888       305175.6049843990      0.1990000000      13.6638789552      0.4132370935      0.0000000000
0.4132515367       277723.3791292720      0.2010000000      13.6215053452      0.4218766019      0.0000000000
0.4215840170       252898.7521240845      0.2030000000      13.5813707476      0.4306388847      0.0000000000
0.4300232603       230437.0578943060      0.2050000000      13.5433675101      0.4395236301      0.0000000000
0.4385685079       210101.5092622171      0.2070000000      13.5073938252      0.4485304356      0.0000000000
0.4472189146       191680.2328889025      0.2090000000      13.4733534936      0.4576588089      0.0000000000
0.4559735477       174983.3867758195      0.2110000000      13.4411550367      0.4669081678      0.0000000000
0.4648313877       159840.8046539988      0.2130000000      13.4107116670      0.4762778393      0.0000000000
0.4737913308       146099.9116375777      0.2150000000      13.3819409826      0.4857670621      0.0000000000
0.4828521911       133623.8626789031      0.2170000000      13.3547645699      0.4953749879      0.0000000000
0.4920126983       122289.6908149499      0.2190000000      13.3291078345      0.5051006789      0.0000000000
0.5012715038       111987.0265180660      0.2210000000      13.3048996992      0.5149431132      0.0000000000
0.5106271802       102616.6575500977      0.2230000000      13.2820724796      0.5249011836      0.0000000000
0.5200782229        94089.3432671483      0.2250000000      13.2605615008      0.5349736990      0.0000000000
0.5296230533        86324.7972084418      0.2270000000      13.2403050972      0.5451593870      0.0000000000
0.5392600206        79250.7671861757      0.2290000000      13.2212444027      0.5554568946      0.0000000000
0.5489874036        72802.1600741235      0.2310000000      13.2033230436      0.5658647906      0.0000000000
0.5588034143        66920.3421626230      0.2330000000      13.1864873141      0.5763815675      0.0000000000
0.5687061973        61552.3898324177      0.2350000000      13.1706855941      0.5870056416      0.0000000000
0.5786938375        56650.6518139944      0.2370000000      13.1558687183      0.5977353591      0.0000000000
0.5887643577        52172.0570849384      0.2390000000      13.1419894561      0.6085689942      0.0000000000
0.5989157241        48077.7418075238      0.2410000000      13.1290026386      0.6195047535      0.0000000000
0.6091458484        44332.5908365338      0.2430000000      13.1168649807      0.6305407779      0.0000000000
0.6194525904        40904.8693040717      0.2450000000      13.1055350285      0.6416751453      0.0000000000
0.6298337607        37765.8630502554      0.2470000000      13.0949728965      0.6529058720      0.0000000000
0.6402871248        34889.6235065146      0.2490000000      13.0851405833      0.6642309171      0.0000000000
0.6508104043        32252.6316586932      0.2510000000      13.0760014632      0.6756481832      0.0000000000
0.6614012811        29833.6068745099      0.2530000000      13.0675204297      0.6871555200      0.0000000000
0.6720574002        27613.2636537376      0.2550000000      13.0596639046      0.6987507277      0.0000000000
0.6827763722        25574.1104010816      0.2570000000      13.0523995234      0.7104315580      0.0000000000
0.6935557755        23700.2919235846      0.2590000000      13.0456963532      0.7221957170      0.0000000000
0.7043931616        21977.4164993078      0.2610000000      13.0395246215      0.7340408699      0.0000000000
0.7152860565        20392.4180283422      0.2630000000      13.0338558055      0.7459646423      0.0000000000
0.7262319639        18933.4305793768      0.2650000000      13.0286625244      0.7579646230      0.0000000000
0.7372283677        17589.6669223980      0.2670000000      13.0239184719      0.7700383668      0.0000000000
0.7482727358        16351.3254893677      0.2690000000      13.0195984769      0.7821833979      0.0000000000
0.7593625219        15209.4794457584      0.2710000000      13.0156782709      0.7943972115      0.0000000000
0.7704951692        14156.0153098739      0.2730000000      13.0121346821      0.8066772779      0.0000000000
0.7816681132        13183.5407688041      0.2750000000      13.0089453796      0.8190210445      0.0000000000
0.7928787835        12285.3203846465      0.2770000000      13.0060890281      0.8314259381      0.0000000000
0.8041246068        11455.2128008270      0.2790000000      13.0035450793      0.8438893683      0.0000000000
0.8154030106        10687.6236208299      0.2810000000      13.0012938836      0.8564087303      0.0000000000
0.8267114236         9977.4397743192      0.2830000000      12.9993165413      0.8689814059      0.0000000000
0.8380472813         9320.0060330090      0.2850000000      12.9975950136      0.8816047688      0.0000000000
0.8494080247         8711.0596460802      0.2870000000      12.9961119036      0.8942761843      0.0000000000
0.8607911056         8146.7111911598      0.2890000000      12.9948506509      0.9069930134      0.0000000000
0.8721939875         7623.4032591326      0.2910000000      12.9937952603      0.9197526151      0.0000000000
0.8836141479         7137.8826696293      0.2930000000      12.9929305418      0.9325523481      0.0000000000
0.8950490806         6687.1704856273      0.2950000000      12.9922418017      0.9453895732      0.0000000000
0.9064962985         6268.5445896508      0.2970000000      12.9917151667      0.9582616569      0.0000000000
0.9179533338         5879.5045541289      0.2990000000      12.9913371336      0.9711659712      0.0000000000
0.9294177410         5517.7623491426      0.3010000000      12.9910949447      0.9840998974      0.0000000000
0.9408871039         5181.2198684667      0.3030000000      12.9909762856      0.9970608337      0.0000000000
0.9523590177         4867.9537681726      0.3050000000      12.9909695331      1.0100461746      0.0000000000
0.9638311185         4576.1959348082      0.3070000000      12.9910634024      1.0230533454      0.0000000000
0.9753010670         4304.3240063587      0.3090000000      12.9912472074      1.0360797828      0.0000000000
0.9867665543         4050.8480798790      0.3110000000      12.9915107399      1.0491229422      0.0000000000
0.9982253027         3814.3969915346      0.3130000000      12.9918442259      1.0621802987      0.0000000000
1.0096750684         3593.7118292868      0.3150000000      12.9922383740      1.0752493498      0.0000000000
1.0211136409         3387.6317708629      0.3170000000      12.9926842494      1.0883276156      0.0000000000
1.0325388425         3195.0916681408      0.3190000000      12.9931734528      1.1014126379      0.0000000000
1.0439485415         3015.1065795633      0.3210000000      12.9936978607      1.1145019956      0.0000000000
1.0553406341         2846.7722860097      0.3230000000      12.9942498344      1.1275932845      0.0000000000
1.0667130575         2689.2530110477      0.3250000000      12.9948220319      1.1406841321      0.0000000000
1.0780637886         2541.7790562912      0.3270000000      12.9954075074      1.1537721967      0.0000000000
1.0893908439         2403.6397530576      0.3290000000      12.9959996597      1.1668551675      0.0000000000
1.1006922807         2274.1787612852      0.3310000000      12.9965921990      1.1799307661      0.0000000000
1.1119661974         2152.7904180390      0.3330000000      12.9971791737      1.1929967471      0.0000000000
1.1232107342         2038.9146852999      0.3350000000      12.9977549430      1.2060508997      0.0000000000
1.1344240735         1932.0337599093      0.3370000000      12.9983141478      1.2190910479      0.0000000000
1.1456044402         1831.6687722699      0.3390000000      12.9988517149      1.2321150514      0.0000000000
1.1567501022         1737.3763538762      0.3410000000      12.9993628358      1.2451208067      0.0000000000
1.1678593709         1648.7463041161      0.3430000000      12.9998429969      1.2581062477      0.0000000000
1.1789306009         1565.3985095693      0.3450000000      13.0002879075      1.2710693458      0.0000000000
1.1899621903         1486.9807774630      0.3470000000      13.0006935454      1.2840081111      0.0000000000
1.2009525814         1413.1665022267      0.3490000000      13.0010561125      1.2969205925      0.0000000000
1.2119002598         1343.6526692244      0.3510000000      13.0013720111      1.3098048783      0.0000000000
1.2228037552         1278.1582194003      0.3530000000      13.0016378920      1.3226590966      0.0000000000
1.2336616408         1216.4221649013      0.3550000000      13.0018506220      1.3354814153      0.0000000000
1.2444725337         1158.2019984349      0.3570000000      13.0020072245      1.3482700429      0.0000000000
1.2552350943         1103.2724822907      0.3590000000      13.0021049584      1.3610232283      0.0000000000
1.2659480263         1051.4240504228      0.3610000000      13.0021412319      1.3737392613      0.0000000000
1.2766100768         1002.4619955837      0.3630000000      13.0021136650      1.3864164725      0.0000000000
1.2872200353          956.2049334784      0.3650000000      13.0020200001      1.3990532334      0.0000000000
1.2977767342          912.4841067816      0.3670000000      13.0018581901      1.4116479565      0.0000000000
1.3082790478          871.1422962360      0.3690000000      13.0016263109      1.4241990953      0.0000000000
1.3187258925          832.0332000710      0.3710000000      13.0013226110      1.4367051445      0.0000000000
1.3291162260          795.0200107835      0.3730000000      13.0009454502      1.4491646392      0.0000000000
1.3394490469          759.9756019995      0.3750000000      13.0004933680      1.4615761558      0.0000000000
1.3497233944          726.7809045331      0.3770000000      12.9999649701      1.4739383108      0.0000000000
1.3599383481          695.3253857966      0.3790000000      12.9993590820      1.4862497616      0.0000000000
1.3700930305          665.5052681557      0.3810000000      12.9986745605      1.4985092102      0.0000000000
1.3801865920          637.2238478928      0.3830000000      12.9979104116      1.5107153847      0.0000000000
1.3902182328          610.3907867849      0.3850000000      12.9970657731      1.5228670669      0.0000000000
1.4001871873          584.9214829504      0.3870000000      12.9961398359      1.5349630733      0.0000000000
1.4100927273          560.7369261988      0.3890000000      12.9951319428      1.5470022592      0.0000000000
1.4199341610          537.7630188549      0.3910000000      12.9940414875      1.5589835191      0.0000000000
1.4297108334          515.9306325006      0.3930000000      12.9928679980      1.5709057857      0.0000000000
1.4394221243          495.1748070759      0.3950000000      12.9916110434      1.5827680293      0.0000000000
1.4490674490          475.4347984701      0.3970000000      12.9902703164      1.5945692583      0.0000000000
1.4586462567          456.6536867219      0.3990000000      12.9888455615      1.6063085178      0.0000000000
1.4681580303          438.7779221739      0.4010000000      12.9873365966      1.6179848897      0.0000000000
1.4776022858          421.7575728941      0.4030000000      12.9857433435      1.6295974922      0.0000000000
1.4869785712          405.5455138972      0.4050000000      12.9840657517      1.6411454791      0.0000000000
1.4962864663          390.0976305544      0.4070000000      12.9823038595      1.6526280394      0.0000000000
1.5055255817          375.3724567471      0.4090000000      12.9804577443      1.6640443968      0.0000000000
1.5146955584          361.3310330483      0.4110000000      12.9785275691      1.6753938094      0.0000000000
1.5237960672          347.9368413649      0.4130000000      12.9765135416      1.6866755688      0.0000000000
1.5328268072          335.1553703519      0.4150000000      12.9744159074      1.6978889997      0.0000000000
1.5417875062          322.9542573704      0.4170000000      12.9722349658      1.7090334595      0.0000000000
1.5506779195          311.3031082275      0.4190000000      12.9699710885      1.7201083376      0.0000000000
1.5594978294          300.1732128698      0.4210000000      12.9676246706      1.7311130550      0.0000000000
1.5682470440          289.5375789942      0.4230000000      12.9651961326      1.7420470635      0.0000000000
1.5769253973          279.3707766036      0.4250000000      12.9626859633      1.7529098452      0.0000000000
1.5855327479          269.6487727119      0.4270000000      12.9600946589      1.7637009120      0.0000000000
1.5940689788          260.3490260319      0.4290000000      12.9574227672      1.7744198052      0.0000000000
1.6025339968          251.4502892722      0.4310000000      12.9546709029      1.7850660947      0.0000000000
1.6109277310          242.9323762038      0.4330000000      12.9518396422      1.7956393782      0.0000000000
1.6192501331          234.7763280815      0.4350000000      12.9489296181      1.8061392811      0.0000000000
1.6275011767          226.9642985091      0.4370000000      12.9459415296      1.8165654558      0.0000000000
1.6356808558          219.4793371302      0.4390000000      12.9428760434      1.8269175808      0.0000000000
1.6437891851          212.3054428364      0.4410000000      12.9397338695      1.8371953605      0.0000000000
1.6518261992          205.4275859497      0.4430000000      12.9365157650      1.8473985244      0.0000000000
1.6597919514          198.8314530008      0.4450000000      12.9332224630      1.8575268268      0.0000000000
1.6676865138          192.5035378841      0.4470000000      12.9298547340      1.8675800457      0.0000000000
1.6755099765          186.4311124856      0.4490000000      12.9264133848      1.8775579829      0.0000000000
1.6832624468          180.6020590828      0.4510000000      12.9228992113      1.8874604629      0.0000000000
1.6909440490          175.0049550843      0.4530000000      12.9193130355      1.8972873327      0.0000000000
1.6985549234          169.6290047690      0.4550000000      12.9156557017      1.9070384610      0.0000000000
1.7060952259          164.4638924625      0.4570000000      12.9119280318      1.9167137379      0.0000000000
1.7135651279          159.4999481049      0.4590000000      12.9081309031      1.9263130739      0.0000000000
1.7209648151          154.7279500919      0.4610000000      12.9042651759      1.9358364000      0.0000000000
1.7282944871          150.1391291265      0.4630000000      12.9003317128      1.9452836667      0.0000000000
1.7355543575          145.7252394743      0.4650000000      12.8963314047      1.9546548436      0.0000000000
1.7427446525          141.4783927741      0.4670000000      12.8922651409      1.9639499189      0.0000000000
1.7498656111          137.3911403059      0.4690000000      12.8881337954      1.9731688989      0.0000000000
1.7569174843          133.4564306613      0.4710000000      12.8839383116      1.9823118074      0.0000000000
1.7639005345          129.6674878230      0.4730000000      12.8796795362      1.9913786854      0.0000000000
