# M(M_sol)                 Lambda          n_Bc(fm^-3)         R(km)            m_B(M_sol)        m_Bquar/M_B
0.1505107759     18832433.6940041296      0.1510000000      18.9267416127      0.1507002549      0.0000000000
0.1552649797     15948047.2358533870      0.1530000000      18.3454859962      0.1555208120      0.0000000000
0.1602256059     13522161.3954649698      0.1550000000      17.8182643477      0.1605546464      0.0000000000
0.1653937408     11479520.5438376721      0.1570000000      17.3393896656      0.1658033412      0.0000000000
0.1707703700      9757729.7893290929      0.1590000000      16.9038679050      0.1712683979      0.0000000000
0.1763562978      8304884.9708777098      0.1610000000      16.5072994326      0.1769511537      0.0000000000
0.1821522304      7077711.2705460116      0.1630000000      16.1458051365      0.1828528667      0.0000000000
0.1881586593      6040060.0845369585      0.1650000000      15.8159487263      0.1889745953      0.0000000000
0.1943759900      5161717.1597564658      0.1670000000      15.5146899191      0.1953173300      0.0000000000
0.2008044570      4417389.1379221473      0.1690000000      15.2393261065      0.2018819050      0.0000000000
0.2074440996      3785895.2405885141      0.1710000000      14.9874490436      0.2086689737      0.0000000000
0.2142948607      3249486.5630205106      0.1730000000      14.7569151027      0.2156791081      0.0000000000
0.2213564766      2793277.2381308042      0.1750000000      14.5458043732      0.2229126856      0.0000000000
0.2286285380      2404779.2671923996      0.1770000000      14.3523993235      0.2303699506      0.0000000000
0.2361104563      2073506.0155557224      0.1790000000      14.1751570618      0.2380509785      0.0000000000
0.2438015061      1790647.7215169827      0.1810000000      14.0126928384      0.2459557193      0.0000000000
0.2517007539      1548795.1038798320      0.1830000000      13.8637558245      0.2540839216      0.0000000000
0.2598071140      1341714.2061893486      0.1850000000      13.7272191004      0.2624351907      0.0000000000
0.2681193351      1164153.5167992383      0.1870000000      13.6020633571      0.2710089721      0.0000000000
0.2766359898      1011686.1334279388      0.1890000000      13.4873657267      0.2798045404      0.0000000000
0.2853554735       880575.4002209759      0.1910000000      13.3822875382      0.2888209963      0.0000000000
0.2942760225       767665.3113716907      0.1930000000      13.2860682205      0.2980572842      0.0000000000
0.3033956724       670285.8722545002      0.1950000000      13.1980120089      0.3075121470      0.0000000000
0.3127123370       586177.3918245732      0.1970000000      13.1174888022      0.3171842078      0.0000000000
0.3222237352       513423.8136721952      0.1990000000      13.0439204271      0.3270718907      0.0000000000
0.3319274270       450399.1599455219      0.2010000000      12.9767785154      0.3371734584      0.0000000000
0.3418208146       395721.7852581108      0.2030000000      12.9155792371      0.3474870105      0.0000000000
0.3519011403       348216.1484385382      0.2050000000      12.8598784524      0.3580104805      0.0000000000
0.3621655084       306880.9987439402      0.2070000000      12.8092695933      0.3687416566      0.0000000000
0.3726108498       270862.0318857452      0.2090000000      12.7633764506      0.3796781431      0.0000000000
0.3832339581       239429.7945836243      0.2110000000      12.7218533735      0.3908173966      0.0000000000
0.3940315028       211960.4363360226      0.2130000000      12.6843826637      0.4021567385      0.0000000000
0.4050000056       187919.7015147304      0.2150000000      12.6506700074      0.4136933279      0.0000000000
0.4161358635       166849.5017779031      0.2170000000      12.6204437490      0.4254241847      0.0000000000
0.4274353471       148356.5073830023      0.2190000000      12.5934521970      0.4373461859      0.0000000000
0.4388946255       132102.6060711736      0.2210000000      12.5694635682      0.4494560909      0.0000000000
0.4505097176       117796.6243583997      0.2230000000      12.5482597083      0.4617504872      0.0000000000
0.4622765892       105187.6658782069      0.2250000000      12.5296422667      0.4742258928      0.0000000000
0.4741910721        94059.1057772587      0.2270000000      12.5134242085      0.4868786684      0.0000000000
0.4862489250        84223.7480279799      0.2290000000      12.4994331842      0.4997050808      0.0000000000
0.4984458100        75519.5410029730      0.2310000000      12.4875076908      0.5127012762      0.0000000000
0.5107773076        67806.0772322980      0.2330000000      12.4774971725      0.5258632948      0.0000000000
0.5232389484        60961.5378166767      0.2350000000      12.4692630012      0.5391871035      0.0000000000
0.5358261798        54880.0581370981      0.2370000000      12.4626743836      0.5526685588      0.0000000000
0.5485343998        49469.5522278586      0.2390000000      12.4576099620      0.5663034419      0.0000000000
0.5613589527        44649.7996757364      0.2410000000      12.4539561233      0.5800874527      0.0000000000
0.5742951448        40350.8448579162      0.2430000000      12.4516072952      0.5940162257      0.0000000000
0.5873382278        36511.5764449519      0.2450000000      12.4504632208      0.6080853108      0.0000000000
0.6004834480        33078.5848130758      0.2470000000      12.4504323618      0.6222902257      0.0000000000
0.6137260188        30005.0946953916      0.2490000000      12.4514276516      0.6366264252      0.0000000000
0.6270611150        27250.1105369614      0.2510000000      12.4533675596      0.6510892940      0.0000000000
0.6404839277        24777.6579202039      0.2530000000      12.4561764323      0.6656742051      0.0000000000
0.6539896408        22556.1263543464      0.2550000000      12.4597837706      0.6803764945      0.0000000000
0.6675734157        20557.6975321161      0.2570000000      12.4641214146      0.6951914427      0.0000000000
0.6812304476        18757.8824899695      0.2590000000      12.4691278872      0.7101143365      0.0000000000
0.6949559267        17135.0796598167      0.2610000000      12.4747440364      0.7251404253      0.0000000000
0.7087450739        15670.2210826859      0.2630000000      12.4809154840      0.7402649604      0.0000000000
0.7225931233        14346.4516423202      0.2650000000      12.4875903475      0.7554831748      0.0000000000
0.7364953448        13148.8588215132      0.2670000000      12.4947206373      0.7707903082      0.0000000000
0.7504470351        12064.2298660685      0.2690000000      12.5022607426      0.7861815967      0.0000000000
0.7644435319        11080.8480950121      0.2710000000      12.5101681698      0.8016522880      0.0000000000
0.7784802223        10188.3112831624      0.2730000000      12.5184035731      0.8171976509      0.0000000000
0.7925525270         9377.3725638049      0.2750000000      12.5269289830      0.8328129577      0.0000000000
0.8066559291         8639.8056281996      0.2770000000      12.5357097782      0.8484935163      0.0000000000
0.8207859596         7968.2816280644      0.2790000000      12.5447128333      0.8642346534      0.0000000000
0.8349382134         7356.2666918940      0.2810000000      12.5539076448      0.8800317338      0.0000000000
0.8491083411         6797.9274618105      0.2830000000      12.5632650069      0.8958801501      0.0000000000
0.8632920662         6288.0525725742      0.2850000000      12.5727582995      0.9117753430      0.0000000000
0.8774851712         5821.9798972995      0.2870000000      12.5823617768      0.9277127859      0.0000000000
0.8916835184         5395.5350395690      0.2890000000      12.5920520602      0.9436880084      0.0000000000
0.9058830364         5004.9771937149      0.2910000000      12.6018067588      0.9596965815      0.0000000000
0.9200797340         4646.9492436956      0.2930000000      12.6116052029      0.9757341343      0.0000000000
0.9342696962         4318.4374178381      0.2950000000      12.6214279993      0.9917963491      0.0000000000
0.9484490877         4016.7317440132      0.2970000000      12.6312570028      1.0078789666      0.0000000000
0.9626141556         3739.3940650186      0.2990000000      12.6410752937      1.0239777893      0.0000000000
0.9767612290         3484.2281475939      0.3010000000      12.6508669863      1.0400886816      0.0000000000
0.9908867222         3249.2547717977      0.3030000000      12.6606174306      1.0562075745      0.0000000000
1.0049871362         3032.6872114298      0.3050000000      12.6703129300      1.0723304672      0.0000000000
1.0190590568         2832.9122701977      0.3070000000      12.6799406651      1.0884534268      0.0000000000
1.0330991595         2648.4715389905      0.3090000000      12.6894888605      1.1045725932      0.0000000000
1.0471042065         2478.0453538386      0.3110000000      12.6989465064      1.1206841782      0.0000000000
1.0610710473         2320.4385644786      0.3130000000      12.7083031583      1.1367844653      0.0000000000
1.0749966255         2174.5680671109      0.3150000000      12.7175496820      1.1528698195      0.0000000000
1.0888779672         2039.4510293395      0.3170000000      12.7266769258      1.1689366745      0.0000000000
1.1027121955         1914.1953615462      0.3190000000      12.7356772500      1.1849815500      0.0000000000
1.1164965174         1797.9901748953      0.3210000000      12.7445429865      1.2010010375      0.0000000000
1.1302282334         1690.0980682605      0.3230000000      12.7532675679      1.2169918127      0.0000000000
1.1439047277         1589.8476940266      0.3250000000      12.7618443426      1.2329506248      0.0000000000
1.1575234756         1496.6275580500      0.3270000000      12.7702677172      1.2488743057      0.0000000000
1.1710820422         1409.8801355448      0.3290000000      12.7785325311      1.2647597700      0.0000000000
1.1845780805         1329.0966916158      0.3310000000      12.7866342305      1.2806040133      0.0000000000
1.1980093269         1253.8126061960      0.3330000000      12.7945683482      1.2964041079      0.0000000000
1.2113736050         1183.6032590489      0.3350000000      12.8023309681      1.3121572082      0.0000000000
1.2246688239         1118.0803208201      0.3370000000      12.8099186265      1.3278605500      0.0000000000
1.2378929776         1056.8883407885      0.3390000000      12.8173282817      1.3435114496      0.0000000000
1.2510441425          999.7017113149      0.3410000000      12.8245572236      1.3591073034      0.0000000000
1.2641204788          946.2219844774      0.3430000000      12.8316032337      1.3746455894      0.0000000000
1.2771202255          896.1753421811      0.3450000000      12.8384641765      1.3901238621      0.0000000000
1.2900416981          849.3103401798      0.3470000000      12.8451378565      1.4055397513      0.0000000000
1.3028832989          805.3961266598      0.3490000000      12.8516232838      1.4208909746      0.0000000000
1.3156435017          764.2203609180      0.3510000000      12.8579191393      1.4361753210      0.0000000000
1.3283208555          725.5876846958      0.3530000000      12.8640242039      1.4513906547      0.0000000000
1.3409139873          689.3183001935      0.3550000000      12.8699379626      1.4665349210      0.0000000000
1.3534215953          655.2465198664      0.3570000000      12.8756598912      1.4816061379      0.0000000000
1.3658424482          623.2196078711      0.3590000000      12.8811895147      1.4966023960      0.0000000000
1.3781753887          593.0966776839      0.3610000000      12.8865270382      1.5115218646      0.0000000000
1.3904193219          564.7476185115      0.3630000000      12.8916720986      1.5263627774      0.0000000000
1.4025732239          538.0522828686      0.3650000000      12.8966249485      1.5411234443      0.0000000000
1.4146361394          512.8996321350      0.3670000000      12.9013863606      1.5558022488      0.0000000000
1.4266071710          489.1868965368      0.3690000000      12.9059565131      1.5703976367      0.0000000000
1.4384854885          466.8190191514      0.3710000000      12.9103362878      1.5849081271      0.0000000000
1.4502703213          445.7079457679      0.3730000000      12.9145265141      1.5993323043      0.0000000000
1.4619609553          425.7720511790      0.3750000000      12.9185277586      1.6136688150      0.0000000000
1.4735567410          406.9356946683      0.3770000000      12.9223415661      1.6279163786      0.0000000000
1.4850570787          389.1286499239      0.3790000000      12.9259687192      1.6420737697      0.0000000000
1.4964614265          372.2857613553      0.3810000000      12.9294104829      1.6561398285      0.0000000000
1.5077692981          356.3464836254      0.3830000000      12.9326685082      1.6701134596      0.0000000000
1.5189802525          341.2545276115      0.3850000000      12.9357436906      1.6839936186      0.0000000000
1.5300939062          326.9575699203      0.3870000000      12.9386379013      1.6977793286      0.0000000000
1.5411099212          313.4069195704      0.3890000000      12.9413526900      1.7114696659      0.0000000000
1.5520280069          300.5572132286      0.3910000000      12.9438896468      1.7250637629      0.0000000000
1.5628479161          288.3662170289      0.3930000000      12.9462501378      1.7385608034      0.0000000000
1.5735694523          276.7945629395      0.3950000000      12.9484363659      1.7519600324      0.0000000000
1.5841924564          265.8055249347      0.3970000000      12.9504498944      1.7652607403      0.0000000000
1.5947168127          255.3648419241      0.3990000000      12.9522925291      1.7784622704      0.0000000000
1.6051424482          245.4405205335      0.4010000000      12.9539664487      1.7915640190      0.0000000000
1.6154693217          236.0026724253      0.4030000000      12.9554729778      1.8045654216      0.0000000000
1.6256974385          227.0233803212      0.4050000000      12.9568146658      1.8174659729      0.0000000000
1.6358268334          218.4765193094      0.4070000000      12.9579931741      1.8302652044      0.0000000000
1.6458575784          210.3376656885      0.4090000000      12.9590105508      1.8429626956      0.0000000000
1.6557897797          202.5839355030      0.4110000000      12.9598689097      1.8555580703      0.0000000000
1.6656235738          195.1939186346      0.4130000000      12.9605701407      1.8680509917      0.0000000000
1.6753591306          188.1475498065      0.4150000000      12.9611164899      1.8804411677      0.0000000000
1.6849966483          181.4260101788      0.4170000000      12.9615099500      1.8927283433      0.0000000000
1.6945363531          175.0116556671      0.4190000000      12.9617524747      1.9049123018      0.0000000000
1.7039785007          168.8879328546      0.4210000000      12.9618462703      1.9169928666      0.0000000000
1.7133233723          163.0392955057      0.4230000000      12.9617934808      1.9289698965      0.0000000000
1.7225712749          157.4511499822      0.4250000000      12.9615962384      1.9408432857      0.0000000000
1.7317225387          152.1097782277      0.4270000000      12.9612566266      1.9526129621      0.0000000000
1.7407775174          147.0022836103      0.4290000000      12.9607767211      1.9642788868      0.0000000000
1.7497365863          142.1165386017      0.4310000000      12.9601585236      1.9758410521      0.0000000000
1.7586001430          137.4411320066      0.4330000000      12.9594042474      1.9872994834      0.0000000000
1.7673686051          132.9653216333      0.4350000000      12.9585160019      1.9986542351      0.0000000000
1.7760424095          128.6789919096      0.4370000000      12.9574959869      2.0099053916      0.0000000000
1.7846220105          124.5726130064      0.4390000000      12.9563462031      2.0210530636      0.0000000000
1.7931078788          120.6371946591      0.4410000000      12.9550685392      2.0320973877      0.0000000000
1.8015005048          116.8642693826      0.4430000000      12.9536653176      2.0430385306      0.0000000000
1.8098003927          113.2458457041      0.4450000000      12.9521385888      2.0538766821      0.0000000000
1.8180080600          109.7743798840      0.4470000000      12.9504901652      2.0646120536      0.0000000000
1.8261240410          106.4427523587      0.4490000000      12.9487222436      2.0752448841      0.0000000000
1.8341488829          103.2442373313      0.4510000000      12.9468369926      2.0857754343      0.0000000000
1.8420831437          100.1724778238      0.4530000000      12.9448362588      2.0962039842      0.0000000000
1.8499273930           97.2214647064      0.4550000000      12.9427218721      2.1065308343      0.0000000000
1.8576822139           94.3855205403      0.4570000000      12.9404960526      2.1167563085      0.0000000000
1.8653481986           91.6592667821      0.4590000000      12.9381607456      2.1268807479      0.0000000000
1.8729259478           89.0376194798      0.4610000000      12.9357177332      2.1369045107      0.0000000000
1.8804160729           86.5157645127      0.4630000000      12.9331690405      2.1468279745      0.0000000000
1.8878191939           84.0891367989      0.4650000000      12.9305166625      2.1566515340      0.0000000000
1.8951359357           81.7534177490      0.4670000000      12.9277621290      2.1663755963      0.0000000000
1.9023669354           79.5045123869      0.4690000000      12.9249077839      2.1760005906      0.0000000000
1.9095128325           77.3385361591      0.4710000000      12.9219551780      2.1855269546      0.0000000000
1.9165742746           75.2518061652      0.4730000000      12.9189062046      2.1949551431      0.0000000000
1.9235519145           73.2408282459      0.4750000000      12.9157626737      2.2042856236      0.0000000000
1.9304464099           71.3022839527      0.4770000000      12.9125263428      2.2135188760      0.0000000000
1.9372584242           69.4330241877      0.4790000000      12.9091990949      2.2226553939      0.0000000000
1.9439886232           67.6300579976      0.4810000000      12.9057824776      2.2316956799      0.0000000000
1.9506376782           65.8905419252      0.4830000000      12.9022784076      2.2406402501      0.0000000000
1.9572062619           64.2117744271      0.4850000000      12.8986883743      2.2494896285      0.0000000000
1.9636950522           62.5911876568      0.4870000000      12.8950143015      2.2582443519      0.0000000000
1.9701047274           61.0263373381      0.4890000000      12.8912576919      2.2669049637      0.0000000000
1.9764359689           59.5148985975      0.4910000000      12.8874202256      2.2754720175      0.0000000000
1.9826894594           58.0546596754      0.4930000000      12.8835035217      2.2839460747      0.0000000000
1.9888658832           56.6435145913      0.4950000000      12.8795091530      2.2923277047      0.0000000000
1.9949659258           55.2794578506      0.4970000000      12.8754387805      2.3006174845      0.0000000000
2.0009902723           53.9605767933      0.4990000000      12.8712938184      2.3088159968      0.0000000000
2.0069396094           52.6850518793      0.5010000000      12.8670758753      2.3169238316      0.0000000000
2.0128146236           51.4511467498      0.5030000000      12.8627865066      2.3249415854      0.0000000000
2.0186160006           50.2572066753      0.5050000000      12.8584271665      2.3328698592      0.0000000000
2.0243444256           49.1016521590      0.5070000000      12.8539992512      2.3407092588      0.0000000000
2.0300005834           47.9829772345      0.5090000000      12.8495042214      2.3484603958      0.0000000000
