# M(M_sol)                 Lambda          n_Bc(fm^-3)         R(km)            m_B(M_sol)        m_Bquar/M_B
0.1533427886     45088205.1679630652      0.0940000000      23.5263936695      0.1535879224      0.0000000000
0.1576815339     39386000.5269281343      0.0960000000      22.8334781692      0.1579875939      0.0000000000
0.1620287355     34563542.0191315189      0.0980000000      22.2159193115      0.1623985576      0.0000000000
0.1663896449     30450505.3425538726      0.1000000000      21.6613569837      0.1668261476      0.0000000000
0.1707697789     26916954.7478772216      0.1020000000      21.1599829527      0.1712759823      0.0000000000
0.1751748719     23862020.1151547618      0.1040000000      20.7039210650      0.1757539167      0.0000000000
0.1796108188     21206239.3481439352      0.1060000000      20.2867806028      0.1802659847      0.0000000000
0.1840836464     18886198.0298235193      0.1080000000      19.9033274450      0.1848183707      0.0000000000
0.1885994812     16850725.5135950558      0.1100000000      19.5492380980      0.1894173764      0.0000000000
0.1931645278     15058112.5018026512      0.1120000000      19.2209147532      0.1940694008      0.0000000000
0.1977850461     13474060.0480336007      0.1140000000      18.9153423557      0.1987809157      0.0000000000
0.2024165011     12084378.1935463641      0.1160000000      18.6329511419      0.2035065669      0.0000000000
0.2070373760     10866845.6368897539      0.1180000000      18.3723889848      0.2082243954      0.0000000000
0.2116882407      9787650.0287111271      0.1200000000      18.1291859552      0.2129758376      0.0000000000
0.2163847823      8826069.5327733643      0.1220000000      17.9009622640      0.2177769899      0.0000000000
0.2211383547      7966096.3275497025      0.1240000000      17.6859398917      0.2226395566      0.0000000000
0.2259585702      7194748.3780142302      0.1260000000      17.4826955490      0.2275734899      0.0000000000
0.2308541247      6501258.4895337187      0.1280000000      17.2900572552      0.2325878306      0.0000000000
0.2358331459      5876565.9982481776      0.1300000000      17.1070436393      0.2376910629      0.0000000000
0.2409033723      5312960.0174565706      0.1320000000      16.9328243932      0.2428912966      0.0000000000
0.2460722513      4803820.5543815503      0.1340000000      16.7666917721      0.2481963678      0.0000000000
0.2513469917      4343420.2091257107      0.1360000000      16.6080388209      0.2536138928      0.0000000000
0.2567346009      3926769.7738901302      0.1380000000      16.4563425271      0.2591513062      0.0000000000
0.2622419045      3549493.8996712151      0.1400000000      16.3111500017      0.2648158817      0.0000000000
0.2678755479      3207738.9629837763      0.1420000000      16.1720680566      0.2706147337      0.0000000000
0.2736420105      2898088.3620755356      0.1440000000      16.0387534023      0.2765548329      0.0000000000
0.2795475995      2617500.6464857799      0.1460000000      15.9109054431      0.2826430004      0.0000000000
0.2855984436      2363256.7520465213      0.1480000000      15.7882595014      0.2888859011      0.0000000000
0.2918004918      2132916.1477274061      0.1500000000      15.6705817465      0.2952900437      0.0000000000
0.2981595018      1924281.1137294222      0.1520000000      15.5576643677      0.3018617684      0.0000000000
0.3046810393      1735365.5212077100      0.1540000000      15.4493211777      0.3086072475      0.0000000000
0.3113704377      1564371.8779026589      0.1560000000      15.3453852000      0.3155324432      0.0000000000
0.3182328304      1409668.1785240907      0.1580000000      15.2457047685      0.3226431416      0.0000000000
0.3252731137      1269770.4171590393      0.1600000000      15.1501414009      0.3299449149      0.0000000000
0.3324959410      1143327.0842102019      0.1620000000      15.0585673816      0.3374431150      0.0000000000
0.3399057101      1029106.7308852888      0.1640000000      14.9708642670      0.3451428602      0.0000000000
0.3475065551       925985.5804236998      0.1660000000      14.8869209755      0.3530490269      0.0000000000
0.3553023344       832938.0693986475      0.1680000000      14.8066324859      0.3611662372      0.0000000000
0.3632966221       749027.9841749864      0.1700000000      14.7298986465      0.3694988489      0.0000000000
0.3714926974       673400.6414088034      0.1720000000      14.6566232708      0.3780509445      0.0000000000
0.3798935360       605276.1820194477      0.1740000000      14.5867133135      0.3868263212      0.0000000000
0.3885018010       543943.0223447439      0.1760000000      14.5200781286      0.3958284808      0.0000000000
0.3973198532       488752.4620913308      0.1780000000      14.4566289533      0.4050606394      0.0000000000
0.4063497148       439113.4239830757      0.1800000000      14.3962784573      0.4145256888      0.0000000000
0.4155930844       394487.9420305514      0.1820000000      14.3389404533      0.4242262099      0.0000000000
0.4250513312       354386.6165496952      0.1840000000      14.2845296004      0.4341644666      0.0000000000
0.4347254899       318364.6854188535      0.1860000000      14.2329609980      0.4443423977      0.0000000000
0.4446162573       286018.5260133356      0.1880000000      14.1841505487      0.4547616120      0.0000000000
0.4547239961       256981.9982938234      0.1900000000      14.1380144071      0.4654233911      0.0000000000
0.4650487292       230923.4850923009      0.1920000000      14.0944691648      0.4763286805      0.0000000000
0.4755901463       207542.7939062956      0.1940000000      14.0534317225      0.4874780949      0.0000000000
0.4863476025       186568.6112296632      0.1960000000      14.0148195269      0.4988719144      0.0000000000
0.4973201232       167755.8467559176      0.1980000000      13.9785504590      0.5105100873      0.0000000000
0.5085064063       150883.3832489128      0.2000000000      13.9445428766      0.5223922300      0.0000000000
0.5199048288       135751.8851701959      0.2020000000      13.9127158135      0.5345176316      0.0000000000
0.5315134514       122181.8500966824      0.2040000000      13.8829889557      0.5468852556      0.0000000000
0.5433300253       110011.7110019787      0.2060000000      13.8552827365      0.5594937451      0.0000000000
0.5553519999        99096.2558128244      0.2080000000      13.8295186553      0.5723414274      0.0000000000
0.5675765305        89304.9822520290      0.2100000000      13.8056190960      0.5854263200      0.0000000000
0.5800004853        80520.7397738355      0.2120000000      13.7835074675      0.5987461348      0.0000000000
0.5926204589        72638.4162599332      0.2140000000      13.7631085079      0.6122982895      0.0000000000
0.6054327772        65563.7617507160      0.2160000000      13.7443481225      0.6260799104      0.0000000000
0.6184335117        59212.3003341541      0.2180000000      13.7271535402      0.6400878436      0.0000000000
0.6316184873        53508.3720142424      0.2200000000      13.7114534684      0.6543186619      0.0000000000
0.6449832969        48384.2260418560      0.2220000000      13.6971781632      0.6687686761      0.0000000000
0.6585233100        43779.2243550576      0.2240000000      13.6842593158      0.6834339421      0.0000000000
0.6722336869        39639.1046888046      0.2260000000      13.6726302624      0.6983102732      0.0000000000
0.6861093897        35915.3364756404      0.2280000000      13.6622260663      0.7133932489      0.0000000000
0.7001451964        32564.5049702424      0.2300000000      13.6529833917      0.7286782271      0.0000000000
0.7143357119        29547.7981583292      0.2320000000      13.6448406989      0.7441603541      0.0000000000
0.7286753816        26830.5103399097      0.2340000000      13.6377380765      0.7598345755      0.0000000000
0.7431585057        24381.6135874691      0.2360000000      13.6316175628      0.7756956503      0.0000000000
0.7577792505        22173.3681997652      0.2380000000      13.6264228858      0.7917381600      0.0000000000
0.7725316624        20180.9720906718      0.2400000000      13.6220994740      0.8079565213      0.0000000000
0.7874096808        18382.2526983721      0.2420000000      13.6185947385      0.8243449987      0.0000000000
0.8024071508        16757.3804052315      0.2440000000      13.6158577275      0.8408977155      0.0000000000
0.8175178360        15288.6232441032      0.2460000000      13.6138393114      0.8576086665      0.0000000000
0.8327354327        13960.1179076675      0.2480000000      13.6124921174      0.8744717305      0.0000000000
0.8480535795        12757.6742011377      0.2500000000      13.6117705341      0.8914806806      0.0000000000
0.8634658730        11668.5907482716      0.2520000000      13.6116306914      0.9086291984      0.0000000000
0.8789658767        10681.4995405346      0.2540000000      13.6120303665      0.9259108836      0.0000000000
0.8945471352         9786.2212596759      0.2560000000      13.6129290708      0.9433192675      0.0000000000
0.9102031846         8973.6359570426      0.2580000000      13.6142879283      0.9608478236      0.0000000000
0.9259275624         8235.5741183248      0.2600000000      13.6160696427      0.9784899776      0.0000000000
0.9417138211         7564.7109165306      0.2620000000      13.6182385958      0.9962391216      0.0000000000
0.9575555364         6954.4780459396      0.2640000000      13.6207606837      1.0140886225      0.0000000000
0.9734463177         6398.9817340080      0.2660000000      13.6236032473      1.0320318329      0.0000000000
0.9893798172         5892.9332585651      0.2680000000      13.6267351591      1.0500621009      0.0000000000
1.0053497406         5431.5820707331      0.2700000000      13.6301267413      1.0681727822      0.0000000000
1.0213498535         5010.6606037207      0.2720000000      13.6337496576      1.0863572465      0.0000000000
1.0373739921         4626.3323369289      0.2740000000      13.6375769878      1.1046088899      0.0000000000
1.0534160690         4275.1468438916      0.2760000000      13.6415830782      1.1229211412      0.0000000000
1.0694700816         3953.9992243521      0.2780000000      13.6457435854      1.1412874722      0.0000000000
1.0855301184         3660.0939030095      0.2800000000      13.6500353830      1.1597014045      0.0000000000
1.1015903660         3390.9120720860      0.2820000000      13.6544365375      1.1781565184      0.0000000000
1.1176451161         3144.1836690565      0.2840000000      13.6589263562      1.1966464612      0.0000000000
1.1336887661         2917.8608321561      0.2860000000      13.6634850680      1.2151649488      0.0000000000
1.1497158314         2710.0957757465      0.2880000000      13.6680942072      1.2337057803      0.0000000000
1.1657209447         2519.2196510231      0.2900000000      13.6727362240      1.2522628383      0.0000000000
1.1816988623         2343.7244867583      0.2920000000      13.6773945478      1.2708300971      0.0000000000
1.1976444670         2182.2469660644      0.2940000000      13.6820536679      1.2894016274      0.0000000000
1.2135527722         2033.5535096281      0.2960000000      13.6866988870      1.3079716014      0.0000000000
1.2294189245         1896.5275654174      0.2980000000      13.6913165146      1.3265342980      0.0000000000
1.2452382052         1770.1575025369      0.3000000000      13.6958936082      1.3450841052      0.0000000000
1.2610060345         1653.5264095111      0.3020000000      13.7004181237      1.3636155269      0.0000000000
1.2767179720         1545.8025305963      0.3040000000      13.7048787908      1.3821231843      0.0000000000
1.2923697173         1446.2309492907      0.3060000000      13.7092650390      1.4006018187      0.0000000000
1.3079571129         1354.1260670876      0.3080000000      13.7135670684      1.4190462961      0.0000000000
1.3234761467         1268.8646817086      0.3100000000      13.7177757757      1.4374516120      0.0000000000
1.3389229406         1189.8801894346      0.3120000000      13.7218826531      1.4558128789      0.0000000000
1.3542937691         1116.6567991197      0.3140000000      13.7258799097      1.4741253512      0.0000000000
1.3695850462         1048.7249040505      0.3160000000      13.7297602975      1.4923844102      0.0000000000
1.3847933291          985.6565527593      0.3180000000      13.7335171493      1.5105855705      0.0000000000
1.3999153166          927.0615028067      0.3200000000      13.7371443621      1.5287244803      0.0000000000
1.4149478485          872.5837271225      0.3220000000      13.7406363214      1.5467969219      0.0000000000
1.4298879049          821.8981315913      0.3240000000      13.7439879642      1.5647988128      0.0000000000
1.4447326041          774.7076024150      0.3260000000      13.7471946292      1.5827262051      0.0000000000
1.4594792012          730.7406709103      0.3280000000      13.7502521438      1.6005752850      0.0000000000
1.4741250871          689.7488701720      0.3300000000      13.7531567759      1.6183423743      0.0000000000
1.4886677855          651.5047141635      0.3320000000      13.7559051336      1.6360239276      0.0000000000
1.5031049519          615.7999119129      0.3340000000      13.7584942721      1.6536165331      0.0000000000
1.5174343706          582.4434502245      0.3360000000      13.7609215651      1.6711169111      0.0000000000
1.5316539532          551.2601548961      0.3380000000      13.7631847725      1.6885219132      0.0000000000
1.5457617356          522.0892365252      0.3400000000      13.7652819446      1.7058285207      0.0000000000
1.5597558753          494.7830182606      0.3420000000      13.7672114090      1.7230338431      0.0000000000
1.5736346496          469.2057880131      0.3440000000      13.7689718459      1.7401351172      0.0000000000
1.5873964526          445.2327382125      0.3460000000      13.7705621817      1.7571297049      0.0000000000
1.6010397920          422.7490256646      0.3480000000      13.7719815874      1.7740150916      0.0000000000
1.6145632847          401.6488954599      0.3500000000      13.7732294761      1.7907888813      0.0000000000
1.6279656629          381.8349262793      0.3520000000      13.7743055156      1.8074488061      0.0000000000
1.6412457571          363.2172725764      0.3540000000      13.7752095665      1.8239927072      0.0000000000
1.6544025031          345.7130981004      0.3560000000      13.7759416695      1.8404185437      0.0000000000
1.6674349362          329.2459029214      0.3580000000      13.7765020876      1.8567243882      0.0000000000
1.6803421885          313.7450347787      0.3600000000      13.7768912463      1.8729084238      0.0000000000
1.6931234859          299.1452088218      0.3620000000      13.7771097301      1.8889689420      0.0000000000
1.7057781453          285.3860466255      0.3640000000      13.7771582753      1.9049043406      0.0000000000
1.7183055716          272.4116802170      0.3660000000      13.7770377665      1.9207131209      0.0000000000
1.7307052548          260.1703878455      0.3680000000      13.7767492273      1.9363938855      0.0000000000
1.7429767669          248.6142310754      0.3700000000      13.7762937762      1.9519453356      0.0000000000
1.7551197595          237.6988131122      0.3720000000      13.7756726784      1.9673662686      0.0000000000
1.7671339607          227.3829309236      0.3740000000      13.7748873047      1.9826555760      0.0000000000
1.7790191721          217.6283434921      0.3760000000      13.7739390849      1.9978122399      0.0000000000
1.7907752663          208.3995631066      0.3780000000      13.7728295862      2.0128353314      0.0000000000
1.8024021841          199.6636037335      0.3800000000      13.7715604108      2.0277240078      0.0000000000
1.8138999319          191.3898002935      0.3820000000      13.7701332735      2.0424775097      0.0000000000
1.8252685788          183.5496371898      0.3840000000      13.7685499361      2.0570951593      0.0000000000
1.8365082544          176.1165857542      0.3860000000      13.7668122432      2.0715763572      0.0000000000
1.8476191458          169.0659173339      0.3880000000      13.7649220653      2.0859205802      0.0000000000
1.8586014956          162.3746185022      0.3900000000      13.7628813630      2.1001273789      0.0000000000
1.8694555991          156.0212281088      0.3920000000      13.7606921125      2.1141963757      0.0000000000
1.8801818018          149.9857298866      0.3940000000      13.7583563329      2.1281272611      0.0000000000
1.8907804977          144.2494439847      0.3960000000      13.7558760952      2.1419197930      0.0000000000
1.9012521263          138.7949374344      0.3980000000      13.7532534858      2.1555737932      0.0000000000
1.9115971707          133.6059175250      0.4000000000      13.7504906210      2.1690891454      0.0000000000
1.9218161558          128.6671631039      0.4020000000      13.7475896536      2.1824657936      0.0000000000
1.9319096455          123.9644395623      0.4040000000      13.7445527371      2.1957037388      0.0000000000
1.9418782412          119.4844250075      0.4060000000      13.7413820517      2.2088030378      0.0000000000
1.9517225796          115.2146596625      0.4080000000      13.7380798022      2.2217638005      0.0000000000
1.9614433307          111.1434640471      0.4100000000      13.7346481662      2.2345861878      0.0000000000
1.9710411960          107.2599049130      0.4120000000      13.7310893595      2.2472704098      0.0000000000
1.9805169071          103.5537251350      0.4140000000      13.7274056011      2.2598167240      0.0000000000
1.9898712232          100.0153120438      0.4160000000      13.7235990968      2.2722254328      0.0000000000
1.9991049298           96.6356435056      0.4180000000      13.7196720627      2.2844968820      0.0000000000
2.0082188374           93.4062456807      0.4200000000      13.7156266950      2.2966314586      0.0000000000
2.0172137791           90.3191676317      0.4220000000      13.7114652116      2.3086295895      0.0000000000
2.0260906098           87.3669338884      0.4240000000      13.7071898037      2.3204917391      0.0000000000
2.0348502045           84.5425169740      0.4260000000      13.7028026648      2.3322184080      0.0000000000
2.0434934567           81.8393089455      0.4280000000      13.6983059667      2.3438101314      0.0000000000
2.0520212773           79.2510933305      0.4300000000      13.6937018690      2.3552674768      0.0000000000
2.0604345929           76.7720155012      0.4320000000      13.6889925287      2.3665910434      0.0000000000
2.0687343448           74.3965659129      0.4340000000      13.6841800823      2.3777814594      0.0000000000
2.0769214882           72.1195490137      0.4360000000      13.6792666516      2.3888393819      0.0000000000
2.0849969900           69.9360710834      0.4380000000      13.6742543302      2.3997654939      0.0000000000
2.0929618286           67.8415162536      0.4400000000      13.6691452105      2.4105605042      0.0000000000
2.1008169923           65.8315311895      0.4420000000      13.6639413526      2.4212251451      0.0000000000
2.1085634786           63.9020045836      0.4440000000      13.6586448240      2.4317601719      0.0000000000
2.1162022926           62.0490600456      0.4460000000      13.6532576212      2.4421663605      0.0000000000
2.1237344470           60.2690277271      0.4480000000      13.6477817619      2.4524445075      0.0000000000
2.1311609604           58.5584491988      0.4500000000      13.6422192275      2.4625954279      0.0000000000
2.1384828566           56.9140495581      0.4520000000      13.6365719708      2.4726199543      0.0000000000
