# M(M_sol)                 Lambda          n_Bc(fm^-3)         R(km)            m_B(M_sol)        m_Bquar/M_B
0.1521214760     27551538.2899401151      0.1310000000      20.8086776389      0.1523338216      0.0000000000
0.1558667691     24143177.8249105923      0.1330000000      20.2562994675      0.1561303539      0.0000000000
0.1597455897     21164694.6874032989      0.1350000000      19.7441275039      0.1600645499      0.0000000000
0.1637622675     18559002.5710402466      0.1370000000      19.2684728188      0.1641410408      0.0000000000
0.1679210482     16277586.1663105208      0.1390000000      18.8261084716      0.1683643911      0.0000000000
0.1722261232     14278927.3114039097      0.1410000000      18.4141994466      0.1727391291      0.0000000000
0.1766815772     12527265.7665862590      0.1430000000      18.0302368440      0.1772696944      0.0000000000
0.1812913949     10991666.9159490187      0.1450000000      17.6719923954      0.1819604452      0.0000000000
0.1860594877      9645256.7501028702      0.1470000000      17.3374769701      0.1868156854      0.0000000000
0.1909896097      8464624.7696026117      0.1490000000      17.0249057463      0.1918395806      0.0000000000
0.1960854366      7429327.0466036247      0.1510000000      16.7326730927      0.1970362378      0.0000000000
0.2013504520      6521476.1682003774      0.1530000000      16.4593262388      0.2024095904      0.0000000000
0.2067880493      5725408.9324059105      0.1550000000      16.2035492912      0.2079635019      0.0000000000
0.2124014148      5027384.1577898962      0.1570000000      15.9641408165      0.2137016476      0.0000000000
0.2181936149      4415351.4715317376      0.1590000000      15.7400071625      0.2196276025      0.0000000000
0.2241675127      3878730.8051790311      0.1610000000      15.5301443661      0.2257447573      0.0000000000
0.2303258057      3408235.9838180393      0.1630000000      15.3336310327      0.2320563560      0.0000000000
0.2366709977      2995714.9097866807      0.1650000000      15.1496188575      0.2385654675      0.0000000000
0.2432053896      2634010.1140235248      0.1670000000      14.9773237035      0.2452749754      0.0000000000
0.2499310949      2316841.9912996669      0.1690000000      14.8160216715      0.2521875943      0.0000000000
0.2568500064      2038697.9239418311      0.1710000000      14.6650395678      0.2593058343      0.0000000000
0.2639638160      1794744.9000044113      0.1730000000      14.5237539192      0.2666320215      0.0000000000
0.2712739854      1580743.5080447178      0.1750000000      14.3915834042      0.2741682668      0.0000000000
0.2787817660      1392977.4430733381      0.1770000000      14.2679864745      0.2819164860      0.0000000000
0.2864881808      1228190.5622953183      0.1790000000      14.1524579631      0.2898783799      0.0000000000
0.2943940166      1083529.5646894299      0.1810000000      14.0445245719      0.2980554260      0.0000000000
0.3024998588       956496.3698130804      0.1830000000      13.9437453717      0.3064489125      0.0000000000
0.3108060184       844902.6369161160      0.1850000000      13.8497040496      0.3150598628      0.0000000000
0.3193126163       746833.7515245021      0.1870000000      13.7620130473      0.3238891206      0.0000000000
0.3280195191       660613.4972353026      0.1890000000      13.6803067295      0.3329372829      0.0000000000
0.3369263702       584775.3024285920      0.1910000000      13.6042421693      0.3422047302      0.0000000000
0.3460325742       518035.8414334453      0.1930000000      13.5334961166      0.3516916095      0.0000000000
0.3553373185       459272.5604430055      0.1950000000      13.4677651648      0.3613978547      0.0000000000
0.3648395486       407503.1666270999      0.1970000000      13.4067624790      0.3713231601      0.0000000000
0.3745379948       361868.4203999247      0.1990000000      13.3502182477      0.3814670055      0.0000000000
0.3844311616       321616.5110367463      0.2010000000      13.2978778015      0.3918286445      0.0000000000
0.3945173386       286089.6710521394      0.2030000000      13.2495010387      0.4024071133      0.0000000000
0.4047945946       254712.1962701518      0.2050000000      13.2048607233      0.4132012233      0.0000000000
0.4152607946       226980.2700893641      0.2070000000      13.1637427587      0.4242095768      0.0000000000
0.4259135902       202452.7314139873      0.2090000000      13.1259440368      0.4354305553      0.0000000000
0.4367504383       180743.3150976294      0.2110000000      13.0912729933      0.4468623367      0.0000000000
0.4477686056       161513.7311077536      0.2130000000      13.0595489620      0.4585028987      0.0000000000
0.4589651592       144467.4436914013      0.2150000000      13.0305998541      0.4703500067      0.0000000000
0.4703369928       129344.6060671036      0.2170000000      13.0042636856      0.4824012393      0.0000000000
0.4818808170       115917.2972271157      0.2190000000      12.9803863951      0.4946539766      0.0000000000
0.4935931881       103985.6401068641      0.2210000000      12.9588232348      0.5071054279      0.0000000000
0.5054704802        93374.1220711477      0.2230000000      12.9394355358      0.5197526010      0.0000000000
0.5175089258        83928.6616015439      0.2250000000      12.9220927486      0.5325923432      0.0000000000
0.5297046162        75513.9137893552      0.2270000000      12.9066716996      0.5456213388      0.0000000000
0.5420534931        68010.8565056732      0.2290000000      12.8930546517      0.5588360999      0.0000000000
0.5545513706        61314.8259020452      0.2310000000      12.8811303290      0.5722329868      0.0000000000
0.5671939491        55333.7246110643      0.2330000000      12.8707938324      0.5858082215      0.0000000000
0.5799768080        49986.4328386947      0.2350000000      12.8619451567      0.5995578778      0.0000000000
0.5928954166        45201.4698637833      0.2370000000      12.8544891733      0.6134778917      0.0000000000
0.6059451603        40915.8341721789      0.2390000000      12.8483367196      0.6275640875      0.0000000000
0.6191213186        37073.9018372555      0.2410000000      12.8434018445      0.6418121527      0.0000000000
0.6324191084        33626.6011982916      0.2430000000      12.8396045249      0.6562176828      0.0000000000
0.6458336628        30530.5485443348      0.2450000000      12.8368678057      0.6707761575      0.0000000000
0.6593600576        27747.4033127880      0.2470000000      12.8351194180      0.6854829672      0.0000000000
0.6729933104        25243.2327109124      0.2490000000      12.8342904100      0.7003334115      0.0000000000
0.6867283893        22987.9932568835      0.2510000000      12.8343154019      0.7153227068      0.0000000000
0.7005602274        20955.0644011638      0.2530000000      12.8351325692      0.7304460008      0.0000000000
0.7144837301        19120.8473540606      0.2550000000      12.8366837058      0.7456983797      0.0000000000
0.7284937695        17464.3879087266      0.2570000000      12.8389127921      0.7610748610      0.0000000000
0.7425852100        15967.0840921352      0.2590000000      12.8417673624      0.7765704205      0.0000000000
0.7567529132        14612.4015153759      0.2610000000      12.8451976748      0.7921799965      0.0000000000
0.7709917178        13385.6315346837      0.2630000000      12.8491563147      0.8078984678      0.0000000000
0.7852964904        12273.6823628771      0.2650000000      12.8535986903      0.8237207079      0.0000000000
0.7996621035        11264.8896537386      0.2670000000      12.8584824435      0.8396415606      0.0000000000
0.8140834479        10348.8530670863      0.2690000000      12.8637674783      0.8556558536      0.0000000000
0.8285554421         9516.2930385966      0.2710000000      12.8694158932      0.8717584077      0.0000000000
0.8430730359         8758.9224242214      0.2730000000      12.8753918122      0.8879440408      0.0000000000
0.8576312172         8069.3348114246      0.2750000000      12.8816613593      0.9042075756      0.0000000000
0.8722250168         7440.9049202681      0.2770000000      12.8881924336      0.9205438442      0.0000000000
0.8868495153         6867.7029197557      0.2790000000      12.8949548043      0.9369476959      0.0000000000
0.9014998474         6344.4150917522      0.2810000000      12.9019198795      0.9534140021      0.0000000000
0.9161712050         5866.2780214009      0.2830000000      12.9090606367      0.9699376597      0.0000000000
0.9308588436         5429.0161708354      0.2850000000      12.9163515413      0.9865135987      0.0000000000
0.9455580879         5028.7911913583      0.2870000000      12.9237686772      1.0031367882      0.0000000000
0.9602643337         4662.1528751932      0.2890000000      12.9312894908      1.0198022395      0.0000000000
0.9749730488         4325.9962246154      0.2910000000      12.9388924361      1.0365050071      0.0000000000
0.9896797838         4017.5282638715      0.2930000000      12.9465576289      1.0532402012      0.0000000000
1.0043801683         3734.2308132707      0.2950000000      12.9542660696      1.0700029843      0.0000000000
1.0190699191         3473.8348217829      0.2970000000      12.9620001779      1.0867885808      0.0000000000
1.0337448387         3234.2919221090      0.2990000000      12.9697432513      1.1035922759      0.0000000000
1.0484008181         3013.7518649178      0.3010000000      12.9774795194      1.1204094198      0.0000000000
1.0630338438         2810.5435035252      0.3030000000      12.9851944924      1.1372354357      0.0000000000
1.0776399935         2623.1544420816      0.3050000000      12.9928743835      1.1540658165      0.0000000000
1.0922154423         2450.2161088183      0.3070000000      13.0005064341      1.1708961320      0.0000000000
1.1067564593         2290.4880627780      0.3090000000      13.0080784394      1.1877220268      0.0000000000
1.1212594160         2142.8466075350      0.3110000000      13.0155794105      1.2045392292      0.0000000000
1.1357207824         2006.2717328565      0.3130000000      13.0229989925      1.2213435494      0.0000000000
1.1501371245         1879.8368515720      0.3150000000      13.0303271789      1.2381308769      0.0000000000
1.1645051151         1762.7009433700      0.3170000000      13.0375552208      1.2548971934      0.0000000000
1.1788215255         1654.0985731915      0.3190000000      13.0446747472      1.2716385650      0.0000000000
1.1930832258         1553.3329598183      0.3210000000      13.0516777482      1.2883511435      0.0000000000
1.2072871938         1459.7703373841      0.3230000000      13.0585573787      1.3050311770      0.0000000000
1.2214305042         1372.8323725536      0.3250000000      13.0653069136      1.3216749997      0.0000000000
1.2355103347         1291.9917425880      0.3270000000      13.0719202101      1.3382790390      0.0000000000
1.2495239627         1216.7674402590      0.3290000000      13.0783917878      1.3548398130      0.0000000000
1.2634687678         1146.7197946007      0.3310000000      13.0847165398      1.3713539351      0.0000000000
1.2773422301         1081.4472429985      0.3330000000      13.0908899883      1.3878181122      0.0000000000
1.2911419247         1020.5820601435      0.3350000000      13.0969076292      1.4042291403      0.0000000000
1.3048655288          963.7880022091      0.3370000000      13.1027658329      1.4205839132      0.0000000000
1.3185108153          910.7569744017      0.3390000000      13.1084611543      1.4368794165      0.0000000000
1.3320756541          861.2066042749      0.3410000000      13.1139906193      1.4531127300      0.0000000000
1.3455580099          814.8779372183      0.3430000000      13.1193516188      1.4692810263      0.0000000000
1.3589559378          771.5330129128      0.3450000000      13.1245414710      1.4853815671      0.0000000000
1.3722675896          730.9536144360      0.3470000000      13.1295583483      1.5014117108      0.0000000000
1.3854912067          692.9390716766      0.3490000000      13.1344005292      1.5173689060      0.0000000000
1.3986251174          657.3046531577      0.3510000000      13.1390663135      1.5332506892      0.0000000000
1.4116677408          623.8805775481      0.3530000000      13.1435546155      1.5490546901      0.0000000000
1.4246175794          592.5102865028      0.3550000000      13.1478642401      1.5647786240      0.0000000000
1.4374732230          563.0496881559      0.3570000000      13.1519945615      1.5804202981      0.0000000000
1.4502333432          535.3658531444      0.3590000000      13.1559450580      1.5959776045      0.0000000000
1.4628966925          509.3361120971      0.3610000000      13.1597153878      1.6114485217      0.0000000000
1.4754621014          484.8471407948      0.3630000000      13.1633052196      1.6268311110      0.0000000000
1.4879284822          461.7944633677      0.3650000000      13.1667149291      1.6421235222      0.0000000000
1.5002948176          440.0812194974      0.3670000000      13.1699444003      1.6573239812      0.0000000000
1.5125601676          419.6179975711      0.3690000000      13.1729941081      1.6724307991      0.0000000000
1.5247236635          400.3219837870      0.3710000000      13.1758645578      1.6874423653      0.0000000000
1.5367845061          382.1164690483      0.3730000000      13.1785563236      1.7023571469      0.0000000000
1.5487419672          364.9304736283      0.3750000000      13.1810704044      1.7171736907      0.0000000000
1.5605953807          348.6980084442      0.3770000000      13.1834074157      1.7318906138      0.0000000000
1.5723441481          333.3579532369      0.3790000000      13.1855683901      1.7465066108      0.0000000000
1.5839877344          318.8536078100      0.3810000000      13.1875546125      1.7610204494      0.0000000000
1.5955256635          305.1322392816      0.3830000000      13.1893671614      1.7754309657      0.0000000000
1.6069575205          292.1448983247      0.3850000000      13.1910074786      1.7897370678      0.0000000000
1.6182829453          279.8459879703      0.3870000000      13.1924767799      1.8039377285      0.0000000000
1.6295016362          268.1931800313      0.3890000000      13.1937767067      1.8180319907      0.0000000000
1.6406133422          257.1469796370      0.3910000000      13.1949086166      1.8320189581      0.0000000000
1.6516178676          246.6706904924      0.3930000000      13.1958742950      1.8458978017      0.0000000000
1.6625150635          236.7300213950      0.3950000000      13.1966752162      1.8596677502      0.0000000000
1.6733048312          227.2930545323      0.3970000000      13.1973131106      1.8733280944      0.0000000000
1.6839871201          218.3300329900      0.3990000000      13.1977898726      1.8868781851      0.0000000000
1.6945619226          209.8131417059      0.4010000000      13.1981072572      1.9003174278      0.0000000000
1.7050292760          201.7164323130      0.4030000000      13.1982671793      1.9136452851      0.0000000000
1.7153892578          194.0156169346      0.4050000000      13.1982713939      1.9268612715      0.0000000000
1.7256419869          186.6880196831      0.4070000000      13.1981218351      1.9399649555      0.0000000000
1.7357876215          179.7124535047      0.4090000000      13.1978205563      1.9529559573      0.0000000000
1.7458263563          173.0690658075      0.4110000000      13.1973695317      1.9658339456      0.0000000000
1.7557584212          166.7392632078      0.4130000000      13.1967707015      1.9785986365      0.0000000000
1.7655840808          160.7056415794      0.4150000000      13.1960260931      1.9912497935      0.0000000000
1.7753036328          154.9518967572      0.4170000000      13.1951377873      2.0037872255      0.0000000000
1.7849174051          149.4627138126      0.4190000000      13.1941077167      2.0162107834      0.0000000000
1.7944257575          144.2237746517      0.4210000000      13.1929380979      2.0285203632      0.0000000000
1.8038290765          139.2215896883      0.4230000000      13.1916308679      2.0407158991      0.0000000000
1.8131277778          134.4435462097      0.4250000000      13.1901882607      2.0527973674      0.0000000000
1.8223223013          129.8777462394      0.4270000000      13.1886122087      2.0647647802      0.0000000000
1.8314131127          125.5130311564      0.4290000000      13.1869048014      2.0766181875      0.0000000000
1.8404007017          121.3389195209      0.4310000000      13.1850681875      2.0883576758      0.0000000000
1.8492855804          117.3455459935      0.4330000000      13.1831044826      2.0999833657      0.0000000000
1.8580682805          113.5236020179      0.4350000000      13.1810155776      2.1114954089      0.0000000000
1.8667493563          109.8643561408      0.4370000000      13.1788036628      2.1228939918      0.0000000000
1.8753293805          106.3595841884      0.4390000000      13.1764708689      2.1341793308      0.0000000000
1.8838089430          103.0015136515      0.4410000000      13.1740191452      2.1453516708      0.0000000000
1.8921886519           99.7828415094      0.4430000000      13.1714506304      2.1564112866      0.0000000000
1.9004691305           96.6966637452      0.4450000000      13.1687673101      2.1673584790      0.0000000000
1.9086510169           93.7364591741      0.4470000000      13.1659710797      2.1781935750      0.0000000000
1.9167349653           90.8961076998      0.4490000000      13.1630641525      2.1889169285      0.0000000000
1.9247216417           88.1698041018      0.4510000000      13.1600484683      2.1995289163      0.0000000000
1.9326117244           85.5520621385      0.4530000000      13.1569259262      2.2100299378      0.0000000000
1.9404059040           83.0377119345      0.4550000000      13.1536985620      2.2204204154      0.0000000000
1.9481048816           80.6218552464      0.4570000000      13.1503682609      2.2307007922      0.0000000000
1.9557093686           78.2998702492      0.4590000000      13.1469370428      2.2408715322      0.0000000000
1.9632200859           76.0673818673      0.4610000000      13.1434068478      2.2509331186      0.0000000000
1.9706377614           73.9202318383      0.4630000000      13.1397794224      2.2608860513      0.0000000000
1.9779631327           71.8545079990      0.4650000000      13.1360567448      2.2707308497      0.0000000000
1.9851969442           69.8664960555      0.4670000000      13.1322407256      2.2804680500      0.0000000000
1.9923399456           67.9526691797      0.4690000000      13.1283331217      2.2900982026      0.0000000000
1.9993928937           66.1096910364      0.4710000000      13.1243357502      2.2996218740      0.0000000000
2.0063565502           64.3344005622      0.4730000000      13.1202504727      2.3090396451      0.0000000000
2.0132316817           62.6237959003      0.4750000000      13.1160790581      2.3183521102      0.0000000000
2.0200190579           60.9750216386      0.4770000000      13.1118231462      2.3275598755      0.0000000000
2.0267194543           59.3853864927      0.4790000000      13.1074846772      2.3366635616      0.0000000000
2.0333336467           57.8523113565      0.4810000000      13.1030651588      2.3456637972      0.0000000000
2.0398624156           56.3733638508      0.4830000000      13.0985663868      2.3545612245      0.0000000000
2.0463065432           54.9462304366      0.4850000000      13.0939900792      2.3633564951      0.0000000000
2.0526668126           53.5687041856      0.4870000000      13.0893378171      2.3720502690      0.0000000000
2.0589440090           52.2386929700      0.4890000000      13.0846112547      2.3806432165      0.0000000000
