# M(M_sol)                 Lambda          n_Bc(fm^-3)         R(km)            m_B(M_sol)        m_Bquar/M_B
0.1545481785     43300459.1444856822      0.0920000000      23.3374957587      0.1548192073      0.0000000000
0.1600737554     36629586.0590802953      0.0940000000      22.5128197828      0.1604242480      0.0000000000
0.1656471568     31184684.6274506561      0.0960000000      21.7954893118      0.1660821468      0.0000000000
0.1712675970     26696487.3451917619      0.0980000000      21.1661455044      0.1717921847      0.0000000000
0.1769349545     22965816.3299224712      0.1000000000      20.6097663693      0.1775543198      0.0000000000
0.1826496640     19842268.5458043031      0.1020000000      20.1145253910      0.1833690797      0.0000000000
0.1884126289     17210300.6590162590      0.1040000000      19.6709911704      0.1892374740      0.0000000000
0.1942251575     14979914.6076398585      0.1060000000      19.2715568766      0.1951609307      0.0000000000
0.2000889007     13080148.8170903623      0.1080000000      18.9100221427      0.2011412343      0.0000000000
0.2060058033     11454475.5161389783      0.1100000000      18.5812871270      0.2071804771      0.0000000000
0.2119780661     10057463.0708277039      0.1120000000      18.2811212333      0.2132810216      0.0000000000
0.2180081017      8852295.2866842803      0.1140000000      18.0059876239      0.2194454564      0.0000000000
0.2240023755      7824168.5771590285      0.1160000000      17.7567173144      0.2255781781      0.0000000000
0.2299669171      6941572.7597240359      0.1180000000      17.5296625782      0.2316852684      0.0000000000
0.2359400623      6175679.4604099803      0.1200000000      17.3207307382      0.2378059477      0.0000000000
0.2419360809      5507176.4459787142      0.1220000000      17.1274251326      0.2439548709      0.0000000000
0.2479646084      4921037.5015576994      0.1240000000      16.9478159896      0.2501419813      0.0000000000
0.2540333426      4405165.2503840076      0.1260000000      16.7803345888      0.2563752638      0.0000000000
0.2601489624      3949642.0926564182      0.1280000000      16.6236735066      0.2626616813      0.0000000000
0.2663175238      3546240.6974220946      0.1300000000      16.4767274856      0.2690075792      0.0000000000
0.2725446666      3188073.8387118788      0.1320000000      16.3385524852      0.2754188954      0.0000000000
0.2788357293      2869332.5641005640      0.1340000000      16.2083358912      0.2819012782      0.0000000000
0.2851958104      2585086.7273920598      0.1360000000      16.0853734333      0.2884601481      0.0000000000
0.2916298143      2331127.5706936014      0.1380000000      15.9690515965      0.2951007451      0.0000000000
0.2981424788      2103844.0210507107      0.1400000000      15.8588333111      0.3018281559      0.0000000000
0.3047383816      1900123.9888676619      0.1420000000      15.7542464321      0.3086473217      0.0000000000
0.3114219607      1717272.8120212972      0.1440000000      15.6548739810      0.3155630581      0.0000000000
0.3181975107      1552949.4631780183      0.1460000000      15.5603466278      0.3225800515      0.0000000000
0.3250691940      1405111.4496971427      0.1480000000      15.4703360145      0.3297028708      0.0000000000
0.3320410347      1271971.2172299479      0.1500000000      15.3845491998      0.3369359607      0.0000000000
0.3391169193      1151959.2776370931      0.1520000000      15.3027237121      0.3442836425      0.0000000000
0.3463005959      1043693.5516660330      0.1540000000      15.2246242568      0.3517501135      0.0000000000
0.3535956786       945953.4118556400      0.1560000000      15.1500385600      0.3593394508      0.0000000000
0.3610056099       857658.4509441640      0.1580000000      15.0787749731      0.3670555727      0.0000000000
0.3685337068       777849.5448347977      0.1600000000      15.0106594315      0.3749022864      0.0000000000
0.3761831259       705673.7760360269      0.1620000000      14.9455338466      0.3828832515      0.0000000000
0.3839568638       640371.0319944391      0.1640000000      14.8832538851      0.3910019796      0.0000000000
0.3918577538       581262.4385061635      0.1660000000      14.8236872105      0.3992618318      0.0000000000
0.3998884628       527740.8130949190      0.1680000000      14.7667122249      0.4076660139      0.0000000000
0.4080514845       479262.2397693603      0.1700000000      14.7122168421      0.4162175698      0.0000000000
0.4163491363       435338.5772912129      0.1720000000      14.6600971080      0.4249193776      0.0000000000
0.4247835561       395531.3907354794      0.1740000000      14.6102565928      0.4337741455      0.0000000000
0.4333566954       359446.3128993122      0.1760000000      14.5626052770      0.4427844044      0.0000000000
0.4420703112       326728.2327955160      0.1780000000      14.5170588818      0.4519524985      0.0000000000
0.4509259895       297057.0433669885      0.1800000000      14.4735380451      0.4612806098      0.0000000000
0.4599251020       270144.0687013151      0.1820000000      14.4319681965      0.4707707111      0.0000000000
0.4690688283       245728.6951763300      0.1840000000      14.3922786206      0.4804245895      0.0000000000
0.4783581494       223575.5042140866      0.1860000000      14.3544021819      0.4902438377      0.0000000000
0.4877938422       203471.6758862497      0.1880000000      14.3182746578      0.5002298483      0.0000000000
0.4973764839       185224.8189330654      0.1900000000      14.2838350315      0.5103838164      0.0000000000
0.5071064458       168660.8508668953      0.1920000000      14.2510246535      0.5207067330      0.0000000000
0.5169838934       153622.2014751530      0.1940000000      14.2197869110      0.5311993831      0.0000000000
0.5270087891       139966.2710732837      0.1960000000      14.1900675347      0.5418623480      0.0000000000
0.5371808895       127563.8942712935      0.1980000000      14.1618138611      0.5526960009      0.0000000000
0.5474997486       116298.1097043789      0.2000000000      14.1349750393      0.5637005094      0.0000000000
0.5579647163       106062.9578664215      0.2020000000      14.1095016415      0.5748758315      0.0000000000
0.5685749437        96762.4191824334      0.2040000000      14.0853455936      0.5862217215      0.0000000000
0.5793293828        88309.5236915866      0.2060000000      14.0624603120      0.5977377267      0.0000000000
0.5902267894        80625.4416220407      0.2080000000      14.0408001748      0.6094231895      0.0000000000
0.6012657270        73638.7401850708      0.2100000000      14.0203207846      0.6212772507      0.0000000000
0.6124445694        67284.6810569388      0.2120000000      14.0009787661      0.6332988497      0.0000000000
0.6237615058        61504.5946387023      0.2140000000      13.9827317510      0.6454867289      0.0000000000
0.6352145450        56245.2984693958      0.2160000000      13.9655383508      0.6578394367      0.0000000000
0.6468015191        51458.6022160261      0.2180000000      13.9493580764      0.6703553292      0.0000000000
0.6585200890        47100.8219575104      0.2200000000      13.9341513208      0.6830325756      0.0000000000
0.6703677509        43132.3580815081      0.2220000000      13.9198793384      0.6958691622      0.0000000000
0.6823418402        39517.3305286812      0.2240000000      13.9065042794      0.7088628957      0.0000000000
0.6944395391        36223.2064415965      0.2260000000      13.8939890285      0.7220114100      0.0000000000
0.7066578826        33220.4959835386      0.2280000000      13.8822973822      0.7353121701      0.0000000000
0.7189937640        30482.4757781348      0.2300000000      13.8713939225      0.7487624775      0.0000000000
0.7314439431        27984.9138274631      0.2320000000      13.8612440600      0.7623594766      0.0000000000
0.7440050519        25705.8447334295      0.2340000000      13.8518139440      0.7761001596      0.0000000000
0.7566736034        23625.3506064602      0.2360000000      13.8430705651      0.7899813747      0.0000000000
0.7694459966        21725.3761938929      0.2380000000      13.8349817261      0.8039998300      0.0000000000
0.7823185263        19989.5459820573      0.2400000000      13.8275160110      0.8181521019      0.0000000000
0.7952873885        18403.0111604433      0.2420000000      13.8206427757      0.8324346409      0.0000000000
0.8083486899        16952.3021478522      0.2440000000      13.8143322266      0.8468437796      0.0000000000
0.8214984530        15625.2036441852      0.2460000000      13.8085552566      0.8613757369      0.0000000000
0.8347326272        14410.6283361530      0.2480000000      13.8032836187      0.8760266296      0.0000000000
0.8480470925        13298.5212668138      0.2500000000      13.7984898726      0.8907924747      0.0000000000
0.8614376704        12279.7536899159      0.2520000000      13.7941473269      0.9056692002      0.0000000000
0.8749001297        11346.0398703293      0.2540000000      13.7902300246      0.9206526506      0.0000000000
0.8884301940        10489.8579842058      0.2560000000      13.7867128650      0.9357385942      0.0000000000
0.9020235503         9704.3762285170      0.2580000000      13.7835714948      0.9509227315      0.0000000000
0.9156758543         8983.3895843958      0.2600000000      13.7807822696      0.9662006999      0.0000000000
0.9293827397         8321.2612315745      0.2620000000      13.7783223884      0.9815680838      0.0000000000
0.9431398241         7712.8670497240      0.2640000000      13.7761697280      0.9970204201      0.0000000000
0.9569427156         7153.5504009488      0.2660000000      13.7743029383      1.0125532046      0.0000000000
0.9707870197         6639.0767422700      0.2680000000      13.7727014207      1.0281618997      0.0000000000
0.9846683470         6165.5938348024      0.2700000000      13.7713452980      1.0438419420      0.0000000000
0.9985823171         5729.5975320991      0.2720000000      13.7702153330      1.0595887465      0.0000000000
1.0125245672         5327.8983686451      0.2740000000      13.7692931203      1.0753977157      0.0000000000
1.0264907564         4957.5920053898      0.2760000000      13.7685608620      1.0912642442      0.0000000000
1.0404765719         4616.0340141753      0.2780000000      13.7680014670      1.1071837258      0.0000000000
1.0544777345         4300.8145210195      0.2800000000      13.7675985192      1.1231515588      0.0000000000
1.0684900031         4009.7376416192      0.2820000000      13.7673362482      1.1391631519      0.0000000000
1.0825091808         3740.8005826458      0.2840000000      13.7671995185      1.1552139306      0.0000000000
1.0965311190         3492.1770018831      0.2860000000      13.7671738355      1.1712993419      0.0000000000
1.1105517210         3262.2007196978      0.2880000000      13.7672453635      1.1874148590      0.0000000000
1.1245669481         3049.3499207231      0.2900000000      13.7674007980      1.2035559878      0.0000000000
1.1385728217         2852.2355738170      0.2920000000      13.7676275001      1.2197182702      0.0000000000
1.1525654278         2669.5884011083      0.2940000000      13.7679133035      1.2358972892      0.0000000000
1.1665409210         2500.2482591848      0.2960000000      13.7682467209      1.2520886740      0.0000000000
1.1804955261         2343.1545010504      0.2980000000      13.7686167224      1.2682881023      0.0000000000
1.1944255425         2197.3366409021      0.3000000000      13.7690128554      1.2844913061      0.0000000000
1.2083273466         2061.9066099506      0.3020000000      13.7694251667      1.3006940745      0.0000000000
1.2221973936         1936.0512865706      0.3040000000      13.7698441955      1.3168922566      0.0000000000
1.2360322201         1819.0257913814      0.3060000000      13.7702609900      1.3330817660      0.0000000000
1.2498284463         1710.1476419996      0.3080000000      13.7706670410      1.3492585823      0.0000000000
1.2635827785         1608.7907906701      0.3100000000      13.7710543295      1.3654187567      0.0000000000
1.2772920070         1514.3812577270      0.3120000000      13.7714152634      1.3815584086      0.0000000000
1.2909530126         1426.3920202797      0.3140000000      13.7717426548      1.3976737356      0.0000000000
1.3045627642         1344.3395222878      0.3160000000      13.7720297758      1.4137610100      0.0000000000
1.3181183226         1267.7791789974      0.3180000000      13.7722702563      1.4298165854      0.0000000000
1.3316168345         1196.3027479335      0.3200000000      13.7724581452      1.4458368898      0.0000000000
1.3450555427         1129.5344995030      0.3220000000      13.7725878279      1.4618184389      0.0000000000
1.3584317796         1067.1291066688      0.3240000000      13.7726540997      1.4777578290      0.0000000000
1.3717429699         1008.7685201204      0.3260000000      13.7726520461      1.4936517416      0.0000000000
1.3849866296          954.1599542743      0.3280000000      13.7725770869      1.5094969428      0.0000000000
1.3981603669          903.0336480478      0.3300000000      13.7724250152      1.5252902855      0.0000000000
1.4112618810          855.1409406070      0.3320000000      13.7721918929      1.5410287093      0.0000000000
1.4242889622          810.2525285878      0.3340000000      13.7718740611      1.5567092410      0.0000000000
1.4372394914          768.1567991971      0.3360000000      13.7714681848      1.5723289956      0.0000000000
1.4501114389          728.6584895043      0.3380000000      13.7709711674      1.5878851753      0.0000000000
1.4629028641          691.5772159131      0.3400000000      13.7703801740      1.6033750707      0.0000000000
1.4756119146          656.7462230356      0.3420000000      13.7696926399      1.6187960604      0.0000000000
1.4882368248          624.0114682508      0.3440000000      13.7689062061      1.6341456105      0.0000000000
1.5007759152          593.2304152310      0.3460000000      13.7680187644      1.6494212746      0.0000000000
1.5132275912          564.2711610408      0.3480000000      13.7670284275      1.6646206934      0.0000000000
1.5255903415          537.0115723916      0.3500000000      13.7659334994      1.6797415941      0.0000000000
1.5378627372          511.3385516853      0.3520000000      13.7647324790      1.6947817893      0.0000000000
1.5500434301          487.1472269872      0.3540000000      13.7634240663      1.7097391773      0.0000000000
1.5621311515          464.3403940654      0.3560000000      13.7620071317      1.7246117405      0.0000000000
1.5741247105          442.8278718735      0.3580000000      13.7604807164      1.7393975444      0.0000000000
1.5860229924          422.5259652216      0.3600000000      13.7588440366      1.7540947375      0.0000000000
1.5978249559          403.3569456107      0.3620000000      13.7570964369      1.7687015474      0.0000000000
1.6095296372          385.2485984066      0.3640000000      13.7552374263      1.7832162877      0.0000000000
1.6211361397          368.1338187187      0.3660000000      13.7532666636      1.7976373459      0.0000000000
1.6326436374          351.9501864018      0.3680000000      13.7511838839      1.8119631886      0.0000000000
1.6440513732          336.6396038520      0.3700000000      13.7489890207      1.8261923600      0.0000000000
1.6553586557          322.1480555592      0.3720000000      13.7466820643      1.8403234787      0.0000000000
1.6665648583          308.4251926769      0.3740000000      13.7442631534      1.8543552378      0.0000000000
1.6776694173          295.4241065184      0.3760000000      13.7417325008      1.8682864031      0.0000000000
1.6886718302          283.1010847326      0.3780000000      13.7390904489      1.8821158114      0.0000000000
1.6995716536          271.4153571365      0.3800000000      13.7363374226      1.8958423693      0.0000000000
1.7103685018          260.3288740833      0.3820000000      13.7334738888      1.9094650518      0.0000000000
1.7210620451          249.8061454936      0.3840000000      13.7305004676      1.9229829005      0.0000000000
1.7316520079          239.8139902415      0.3860000000      13.7274178067      1.9363950226      0.0000000000
1.7421381669          230.3214379901      0.3880000000      13.7242266473      1.9497005890      0.0000000000
1.7525203497          221.2995209946      0.3900000000      13.7209277927      1.9628988330      0.0000000000
1.7627984327          212.7211652078      0.3920000000      13.7175220985      1.9759890482      0.0000000000
1.7729723397          204.5610229774      0.3940000000      13.7140104665      1.9889705879      0.0000000000
1.7830420405          196.7953812560      0.3960000000      13.7103938998      2.0018428631      0.0000000000
1.7930075484          189.4020348221      0.3980000000      13.7066734088      2.0146053407      0.0000000000
1.8028689195          182.3601746931      0.4000000000      13.7028500502      2.0272575423      0.0000000000
1.8126262507          175.6502985936      0.4020000000      13.6989249410      2.0397990428      0.0000000000
1.8222796783          169.2541246975      0.4040000000      13.6948992462      2.0522294688      0.0000000000
1.8318293760          163.1545030432      0.4060000000      13.6907741343      2.0645484964      0.0000000000
1.8412755540          157.3353409820      0.4080000000      13.6865508149      2.0767558511      0.0000000000
1.8506184574          151.7815152175      0.4100000000      13.6822305570      2.0888513052      0.0000000000
1.8598583644          146.4788440560      0.4120000000      13.6778146192      2.1008346768      0.0000000000
1.8689955850          141.4139859900      0.4140000000      13.6733042992      2.1127058278      0.0000000000
1.8780304602          136.5743978247      0.4160000000      13.6687009151      2.1244646637      0.0000000000
1.8869633595          131.9482996467      0.4180000000      13.6640057933      2.1361111308      0.0000000000
1.8957946809          127.5245882459      0.4200000000      13.6592203136      2.1476452160      0.0000000000
1.9045248485          123.2928286253      0.4220000000      13.6543458291      2.1590669444      0.0000000000
1.9131543119          119.2431871600      0.4240000000      13.6493837204      2.1703763786      0.0000000000
1.9216835444          115.3664043771      0.4260000000      13.6443353742      2.1815736173      0.0000000000
1.9301130427          111.6537558187      0.4280000000      13.6392021964      2.1926587937      0.0000000000
1.9384433249          108.0970114376      0.4300000000      13.6339855996      2.2036320749      0.0000000000
1.9466749294          104.6884148604      0.4320000000      13.6286869780      2.2144936595      0.0000000000
1.9548084147          101.4206460995      0.4340000000      13.6233077663      2.2252437778      0.0000000000
1.9628443572           98.2867969307      0.4360000000      13.6178493654      2.2358826895      0.0000000000
1.9707833506           95.2803432086      0.4380000000      13.6123132012      2.2464106828      0.0000000000
1.9786260054           92.3951269774      0.4400000000      13.6067006970      2.2568280737      0.0000000000
1.9863729471           89.6253238423      0.4420000000      13.6010132624      2.2671352043      0.0000000000
1.9940248157           86.9654321814      0.4440000000      13.5952523022      2.2773324419      0.0000000000
2.0015822647           84.4102495575      0.4460000000      13.5894192438      2.2874201782      0.0000000000
2.0090459605           81.9548508414      0.4480000000      13.5835154850      2.2973988279      0.0000000000
2.0164165808           79.5945824990      0.4500000000      13.5775424124      2.3072688275      0.0000000000
