# M(M_sol)                 Lambda          n_Bc(fm^-3)         R(km)            m_B(M_sol)        m_Bquar/M_B
0.1518202621     17382220.4368269332      0.1520000000      18.6522691270      0.1520215273      0.0000000000
0.1563465141     14869315.6097496282      0.1540000000      18.1276630821      0.1566115303      0.0000000000
0.1610102568     12750594.8421029840      0.1560000000      17.6526735102      0.1613444916      0.0000000000
0.1658086537     10959665.7221873552      0.1580000000      17.2216504813      0.1662178255      0.0000000000
0.1707388851      9442135.0538244825      0.1600000000      16.8296988521      0.1712289617      0.0000000000
0.1757982259      8153259.6271997308      0.1620000000      16.4725699500      0.1763754248      0.0000000000
0.1809839594      7056095.8585769059      0.1640000000      16.1465600572      0.1816547456      0.0000000000
0.1862934612      6120043.2726086117      0.1660000000      15.8484311729      0.1870645464      0.0000000000
0.1917241393      5319695.3313960535      0.1680000000      15.5753462164      0.1926024804      0.0000000000
0.1972734246      4633903.4184821518      0.1700000000      15.3248114407      0.1982662209      0.0000000000
0.2029388063      4045016.7368238103      0.1720000000      15.0946261506      0.2040534977      0.0000000000
0.2087178131      3538276.8047562204      0.1740000000      14.8828451682      0.2099620777      0.0000000000
0.2146080112      3101318.4513960774      0.1760000000      14.6877450166      0.2159897626      0.0000000000
0.2206070317      2723759.9036456300      0.1780000000      14.5077960913      0.2221344169      0.0000000000
0.2267124480      2396862.2253943230      0.1800000000      14.3416283769      0.2283938419      0.0000000000
0.2329219922      2113263.9953528917      0.1820000000      14.1880284468      0.2347659977      0.0000000000
0.2392333365      1866744.7942134971      0.1840000000      14.0459036911      0.2412487785      0.0000000000
0.2456441961      1652039.8572966633      0.1860000000      13.9142744629      0.2478401186      0.0000000000
0.2521523400      1464686.4947860276      0.1880000000      13.7922625221      0.2545380028      0.0000000000
0.2587555528      1300893.3334461383      0.1900000000      13.6790763281      0.2613404275      0.0000000000
0.2654516069      1157431.5762481834      0.1920000000      13.5739977502      0.2682453713      0.0000000000
0.2722383706      1031550.4760029871      0.1940000000      13.4763838239      0.2752509071      0.0000000000
0.2791136583       920897.5320589128      0.1960000000      13.3856455281      0.2823550472      0.0000000000
0.2860753537       823460.3870661817      0.1980000000      13.3012521791      0.2895558698      0.0000000000
0.2931213435       737512.8306552898      0.2000000000      13.2227197462      0.2968514511      0.0000000000
0.3002495473       661572.2560538405      0.2020000000      13.1496085199      0.3042398961      0.0000000000
0.3074578617       594361.8211656262      0.2040000000      13.0815138088      0.3117192803      0.0000000000
0.3147442695       534781.8894987057      0.2060000000      13.0180714753      0.3192877630      0.0000000000
0.3221067278       481881.8759718127      0.2080000000      12.9589446442      0.3269434709      0.0000000000
0.3295432117       434839.4119919527      0.2100000000      12.9038246459      0.3346845439      0.0000000000
0.3370517169       392941.7932104014      0.2120000000      12.8524283442      0.3425091370      0.0000000000
0.3446302719       355570.4905261365      0.2140000000      12.8044969428      0.3504154339      0.0000000000
0.3522769114       322187.4930435293      0.2160000000      12.7597912969      0.3584016181      0.0000000000
0.3599896804       292324.1380828226      0.2180000000      12.7180906712      0.3664658781      0.0000000000
0.3677666488       265571.6257464531      0.2200000000      12.6791920319      0.3746064221      0.0000000000
0.3756059019       241572.7362850205      0.2220000000      12.6429077286      0.3828214679      0.0000000000
0.3835055376       220014.8369325861      0.2240000000      12.6090640896      0.3911092405      0.0000000000
0.3914636789       200623.9272812064      0.2260000000      12.5775008633      0.3994679843      0.0000000000
0.3994784484       183159.4223674030      0.2280000000      12.5480684399      0.4078959373      0.0000000000
0.4075479889       167409.7930228944      0.2300000000      12.5206279455      0.4163913518      0.0000000000
0.4156704927       153189.0449734895      0.2320000000      12.4950536448      0.4249525258      0.0000000000
0.4238441079       140332.8317516945      0.2340000000      12.4712233810      0.4335777039      0.0000000000
0.4320670486       128696.3128707545      0.2360000000      12.4490275689      0.4422651939      0.0000000000
0.4403375327       118151.3826481088      0.2380000000      12.4283633733      0.4510133007      0.0000000000
0.4486537919       108584.5961329902      0.2400000000      12.4091346414      0.4598203371      0.0000000000
0.4570140542        99895.3100854607      0.2420000000      12.3912499327      0.4686846052      0.0000000000
0.4654165880        91994.2719743537      0.2440000000      12.3746257797      0.4776044430      0.0000000000
0.4738596903        84802.2056704703      0.2460000000      12.3591854968      0.4865782122      0.0000000000
0.4823416305        78248.4024681673      0.2480000000      12.3448533874      0.4956042381      0.0000000000
0.4908607396        72270.0073692664      0.2500000000      12.3315625326      0.5046809047      0.0000000000
0.4994153488        66810.8783141385      0.2520000000      12.3192488094      0.5138065894      0.0000000000
0.5080037917        61820.8448570113      0.2540000000      12.3078509212      0.5229796653      0.0000000000
0.5166244409        57255.0968732265      0.2560000000      12.2973132602      0.5321985399      0.0000000000
0.5252756722        53073.4723390659      0.2580000000      12.2875823401      0.5414616177      0.0000000000
0.5339558862        49240.0019654335      0.2600000000      12.2786087197      0.5507673223      0.0000000000
0.5426635013        45722.4026160256      0.2620000000      12.2703459118      0.5601140899      0.0000000000
0.5513969490        42491.6705259612      0.2640000000      12.2627499083      0.5695003636      0.0000000000
0.5601546786        39521.7169607601      0.2660000000      12.2557792166      0.5789245988      0.0000000000
0.5689351589        36789.0680684311      0.2680000000      12.2493949978      0.5883852651      0.0000000000
0.5777368880        34272.5690783055      0.2700000000      12.2435610630      0.5978808565      0.0000000000
0.5865583538        31953.1308500360      0.2720000000      12.2382426769      0.6074098495      0.0000000000
0.5953980839        29813.5156923206      0.2740000000      12.2334071708      0.6169707562      0.0000000000
0.6042546278        27838.1563949426      0.2760000000      12.2290246946      0.6265621059      0.0000000000
0.6131265356        26012.9426259964      0.2780000000      12.2250654451      0.6361824217      0.0000000000
0.6220123971        24325.1263012903      0.2800000000      12.2215033071      0.6458302632      0.0000000000
0.6309107981        22763.1241588016      0.2820000000      12.2183115583      0.6555041785      0.0000000000
0.6398203674        21316.4473291634      0.2840000000      12.2154670777      0.6652027561      0.0000000000
0.6487397206        19975.5470169673      0.2860000000      12.2129452618      0.6749245632      0.0000000000
0.6576675274        18731.7710888347      0.2880000000      12.2107259581      0.6846682197      0.0000000000
0.6666024563        17577.2311268704      0.2900000000      12.2087883596      0.6944323374      0.0000000000
0.6755431943        16504.7450255393      0.2920000000      12.2071127168      0.7042155418      0.0000000000
0.6844884557        15507.7732083013      0.2940000000      12.2056810943      0.7140164819      0.0000000000
0.6934369708        14580.3489776512      0.2960000000      12.2044762825      0.7238338179      0.0000000000
0.7023874823        13717.0202658115      0.2980000000      12.2034813393      0.7336662170      0.0000000000
0.7113387695        12912.8186058086      0.3000000000      12.2026818419      0.7435123804      0.0000000000
0.7202896111        12163.1878049776      0.3020000000      12.2020623356      0.7533710027      0.0000000000
0.7292388213        11463.9685059057      0.3040000000      12.2016096825      0.7632408108      0.0000000000
0.7381852110        10811.3399556715      0.3060000000      12.2013093270      0.7731205223      0.0000000000
0.7471276397        10201.8153172140      0.3080000000      12.2011501887      0.7830089025      0.0000000000
0.7560649631         9632.1854067407      0.3100000000      12.2011196486      0.7929047060      0.0000000000
0.7649960761         9099.5141456583      0.3120000000      12.2012076401      0.8028067252      0.0000000000
0.7739198704         8601.0945078943      0.3140000000      12.2014024635      0.8127137433      0.0000000000
0.7828352733         8134.4450459525      0.3160000000      12.2016945885      0.8226245767      0.0000000000
0.7917412240         7697.2808927558      0.3180000000      12.2020742578      0.8325380498      0.0000000000
0.8006366908         7287.5030347213      0.3200000000      12.2025332613      0.8424530137      0.0000000000
0.8095206485         6903.1718182676      0.3220000000      12.2030624947      0.8523683208      0.0000000000
0.8183920964         6542.5032116444      0.3240000000      12.2036539137      0.8622828458      0.0000000000
0.8272500589         6203.8526301911      0.3260000000      12.2043004706      0.8721954858      0.0000000000
0.8360935683         5885.6987861042      0.3280000000      12.2049943474      0.8821051415      0.0000000000
0.8449216813         5586.6388386797      0.3300000000      12.2057287306      0.8920107357      0.0000000000
0.8537334728         5305.3758572749      0.3320000000      12.2064970512      0.9019112065      0.0000000000
0.8625280394         5040.7115155263      0.3340000000      12.2072933567      0.9118055110      0.0000000000
0.8713045001         4791.5378578341      0.3360000000      12.2081124101      0.9216926270      0.0000000000
0.8800619812         4556.8257327743      0.3380000000      12.2089480037      0.9315715352      0.0000000000
0.8887996330         4335.6241556006      0.3400000000      12.2097951063      0.9414412386      0.0000000000
0.8975166296         4127.0521870949      0.3420000000      12.2106492047      0.9513007629      0.0000000000
0.9062121500         3930.2895264660      0.3440000000      12.2115047122      0.9611491337      0.0000000000
0.9148854101         3744.5793706431      0.3460000000      12.2123582699      0.9709854145      0.0000000000
0.9235356294         3569.2154521061      0.3480000000      12.2132051971      0.9808086685      0.0000000000
0.9321620484         3403.5426998597      0.3500000000      12.2140414032      0.9906179777      0.0000000000
0.9407639350         3246.9536466420      0.3520000000      12.2148639871      1.0004124517      0.0000000000
0.9493405611         3098.8807855013      0.3540000000      12.2156687849      1.0101912001      0.0000000000
0.9578912207         2958.7968103260      0.3560000000      12.2164523186      1.0199533533      0.0000000000
0.9664152346         2826.2122630992      0.3580000000      12.2172122546      1.0296980687      0.0000000000
0.9749119288         2700.6691977583      0.3600000000      12.2179451885      1.0394245055      0.0000000000
0.9833806492         2581.7411868768      0.3620000000      12.2186481268      1.0491318419      0.0000000000
0.9918207655         2469.0315151991      0.3640000000      12.2193189683      1.0588192794      0.0000000000
1.0002316589         2362.1693962606      0.3660000000      12.2199552369      1.0684860294      0.0000000000
1.0086127252         2260.8080081483      0.3680000000      12.2205542648      1.0781313160      0.0000000000
1.0169633819         2164.6245582022      0.3700000000      12.2211141691      1.0877543852      0.0000000000
1.0252830592         2073.3167632567      0.3720000000      12.2216327845      1.0973544940      0.0000000000
1.0335712094         1986.6026333006      0.3740000000      12.2221086635      1.1069309216      0.0000000000
1.0418272926         1904.2175045149      0.3760000000      12.2225396159      1.1164829531      0.0000000000
1.0500507899         1825.9143592184      0.3780000000      12.2229241346      1.1260098946      0.0000000000
1.0582411957         1751.4615894412      0.3800000000      12.2232605223      1.1355110644      0.0000000000
1.0663980238         1680.6426597605      0.3820000000      12.2235476295      1.1449858008      0.0000000000
1.0745208003         1613.2543913022      0.3840000000      12.2237840943      1.1544334529      0.0000000000
1.0826090637         1549.1060057334      0.3860000000      12.2239682951      1.1638533819      0.0000000000
1.0906623745         1488.0192600545      0.3880000000      12.2240995259      1.1732449717      0.0000000000
1.0986803035         1429.8264759465      0.3900000000      12.2241766758      1.1826076155      0.0000000000
1.1066624365         1374.3702420921      0.3920000000      12.2241987041      1.1919407217      0.0000000000
1.1146083735         1321.5027880006      0.3940000000      12.2241646841      1.2012437125      0.0000000000
1.1225177310         1271.0854344316      0.3960000000      12.2240740221      1.2105160275      0.0000000000
1.1303901341         1222.9873281524      0.3980000000      12.2239255283      1.2197571133      0.0000000000
1.1382252284         1177.0860959735      0.4000000000      12.2237189327      1.2289664393      0.0000000000
1.1460226698         1133.2662379661      0.4020000000      12.2234535943      1.2381434842      0.0000000000
1.1537821267         1091.4190337125      0.4040000000      12.2231288083      1.2472877394      0.0000000000
1.1615032824         1051.4422880905      0.4060000000      12.2227442029      1.2563987121      0.0000000000
1.1691858321         1013.2396048541      0.4080000000      12.2222992760      1.2654759215      0.0000000000
1.1768294856          976.7203394275      0.4100000000      12.2217938165      1.2745189022      0.0000000000
1.1844339620          941.7988056366      0.4120000000      12.2212272712      1.2835271982      0.0000000000
1.1919989971          908.3944752241      0.4140000000      12.2205996235      1.2925003714      0.0000000000
1.1995243345          876.4311217365      0.4160000000      12.2199104012      1.3014379912      0.0000000000
1.2070097333          845.8370450163      0.4180000000      12.2191596133      1.3103396444      0.0000000000
1.2144549629          816.5444659932      0.4200000000      12.2183471125      1.3192049279      0.0000000000
1.2218598033          788.4892565040      0.4220000000      12.2174726544      1.3280334505      0.0000000000
1.2292240483          761.6110775453      0.4240000000      12.2165363605      1.3368248356      0.0000000000
1.2365475006          735.8527236913      0.4260000000      12.2155380861      1.3455787161      0.0000000000
1.2438299753          711.1601707409      0.4280000000      12.2144779015      1.3542947389      0.0000000000
1.2510712980          687.4823589189      0.4300000000      12.2133558804      1.3629725617      0.0000000000
1.2582713045          664.7709225440      0.4320000000      12.2121720624      1.3716118536      0.0000000000
1.2654298410          642.9801300503      0.4340000000      12.2109265269      1.3802122956      0.0000000000
1.2725467644          622.0666937521      0.4360000000      12.2096194482      1.3887735801      0.0000000000
1.2796219416          601.9896162012      0.4380000000      12.2082510182      1.3972954108      0.0000000000
1.2866552491          582.7100673048      0.4400000000      12.2068214402      1.4057775021      0.0000000000
1.2936465722          564.1911721546      0.4420000000      12.2053308044      1.4142195786      0.0000000000
1.3005958074          546.3981052247      0.4440000000      12.2037794762      1.4226213772      0.0000000000
1.3075028592          529.2977680967      0.4460000000      12.2021676965      1.4309826443      0.0000000000
1.3143676411          512.8587490692      0.4480000000      12.2004956718      1.4393031362      0.0000000000
1.3211900762          497.0512970957      0.4500000000      12.1987637696      1.4475826206      0.0000000000
1.3279700959          481.8471594819      0.4520000000      12.1969723210      1.4558208749      0.0000000000
1.3347076399          467.2194580565      0.4540000000      12.1951215731      1.4640176856      0.0000000000
1.3414026566          453.1427550568      0.4560000000      12.1932119529      1.4721728502      0.0000000000
1.3480551025          439.5928144053      0.4580000000      12.1912438271      1.4802861751      0.0000000000
1.3546649415          426.5466336422      0.4600000000      12.1892175233      1.4883574758      0.0000000000
1.3612321467          413.9823650401      0.4620000000      12.1871335569      1.4963865787      0.0000000000
1.3677566964          401.8791654646      0.4640000000      12.1849921187      1.5043733163      0.0000000000
1.3742385791          390.2172953932      0.4660000000      12.1827938365      1.5123175338      0.0000000000
1.3806777887          378.9779150578      0.4680000000      12.1805390489      1.5202190826      0.0000000000
1.3870743270          368.1431259017      0.4700000000      12.1782282122      1.5280778238      0.0000000000
1.3934282021          357.6958707956      0.4720000000      12.1758617436      1.5358936264      0.0000000000
1.3997394302          347.6199431982      0.4740000000      12.1734402260      1.5436663693      0.0000000000
1.4060080319          337.8998209263      0.4760000000      12.1709639173      1.5513959369      0.0000000000
1.4122340367          328.5208278599      0.4780000000      12.1684334986      1.5590822249      0.0000000000
1.4184174788          319.4688931946      0.4800000000      12.1658493382      1.5667251346      0.0000000000
1.4245583994          310.7306522158      0.4820000000      12.1632120289      1.5743245767      0.0000000000
1.4306568448          302.2933243976      0.4840000000      12.1605219671      1.5818804678      0.0000000000
1.4367128673          294.1447320901      0.4860000000      12.1577796400      1.5893927328      0.0000000000
1.4427265259          286.2732769116      0.4880000000      12.1549856375      1.5968613049      0.0000000000
1.4486978842          278.6678734669      0.4900000000      12.1521404562      1.6042861235      0.0000000000
1.4546270115          271.3179426399      0.4920000000      12.1492446091      1.6116671354      0.0000000000
1.4605139823          264.2133869448      0.4940000000      12.1462986443      1.6190042944      0.0000000000
1.4663588756          257.3445428875      0.4960000000      12.1433029884      1.6262975603      0.0000000000
1.4721617771          250.7022278243      0.4980000000      12.1402583519      1.6335469015      0.0000000000
1.4779227743          244.2775869075      0.5000000000      12.1371649865      1.6407522896      0.0000000000
1.4836419631          238.0622579064      0.5020000000      12.1340237244      1.6479137071      0.0000000000
1.4893194405          232.0481535177      0.5040000000      12.1308348191      1.6550311382      0.0000000000
1.4949553104          226.2276014784      0.5060000000      12.1275989863      1.6621045766      0.0000000000
1.5005496812          220.5932723935      0.5080000000      12.1243169098      1.6691340221      0.0000000000
1.5061026620          215.1380729051      0.5100000000      12.1209887534      1.6761194762      0.0000000000
