# M(M_sol)                 Lambda          n_Bc(fm^-3)         R(km)            m_B(M_sol)        m_Bquar/M_B
0.1547622506     10597207.9590318967      0.1690000000      16.7818429975      0.1550453388      0.0000000000
0.1604443002      8810224.7296196222      0.1710000000      16.2979372688      0.1608161994      0.0000000000
0.1662991066      7355584.8098536236      0.1730000000      15.8689294927      0.1667682281      0.0000000000
0.1723209476      6166235.5461010747      0.1750000000      15.4873602778      0.1728960677      0.0000000000
0.1785042988      5189658.5279499535      0.1770000000      15.1469681309      0.1791945509      0.0000000000
0.1848438506      4384505.9496090002      0.1790000000      14.8424784358      0.1856587173      0.0000000000
0.1913345049      3718047.1607022095      0.1810000000      14.5694175765      0.1922838108      0.0000000000
0.1979713343      3164264.4691964132      0.1830000000      14.3239768719      0.1990652372      0.0000000000
0.2047495814      2702383.6213755519      0.1850000000      14.1028987160      0.2059985640      0.0000000000
0.2116646149      2315747.6828569141      0.1870000000      13.9033817289      0.2130794753      0.0000000000
0.2187119655      1990951.3706270112      0.1890000000      13.7230106394      0.2203038086      0.0000000000
0.2258872425      1717161.2959514244      0.1910000000      13.5596890129      0.2276674694      0.0000000000
0.2331861984      1485593.1679472441      0.1930000000      13.4115957638      0.2351664975      0.0000000000
0.2406046929      1289097.0950626379      0.1950000000      13.2771413927      0.2427970298      0.0000000000
0.2481386540      1121831.8664466462      0.1970000000      13.1549307297      0.2505552609      0.0000000000
0.2557841301       979010.7779562897      0.1990000000      13.0437402475      0.2584374959      0.0000000000
0.2635372244       856695.8854198577      0.2010000000      12.9424881421      0.2664400837      0.0000000000
0.2713941339       751637.9967633924      0.2030000000      12.8502187010      0.2745594567      0.0000000000
0.2793511500       661147.9440205103      0.2050000000      12.7660859641      0.2827921319      0.0000000000
0.2874046032       582991.3213370206      0.2070000000      12.6893342000      0.2911346531      0.0000000000
0.2955509100       515307.1264467635      0.2090000000      12.6192908095      0.2995836403      0.0000000000
0.3037865713       456540.6895220829      0.2110000000      12.5553560045      0.3081357879      0.0000000000
0.3121081253       405388.4149345733      0.2130000000      12.4969894596      0.3167878151      0.0000000000
0.3205121863       360755.0347173517      0.2150000000      12.4437071743      0.3255365077      0.0000000000
0.3289954332       321717.3376220128      0.2170000000      12.3950733703      0.3343787051      0.0000000000
0.3375546045       287495.0041517832      0.2190000000      12.3506946799      0.3433112956      0.0000000000
0.3461864950       257426.7987623454      0.2210000000      12.3102154549      0.3523312133      0.0000000000
0.3548879788       230951.0306907714      0.2230000000      12.2733150252      0.3614354617      0.0000000000
0.3636559414       207588.8414211852      0.2250000000      12.2396985839      0.3706210434      0.0000000000
0.3724873855       186931.8380189863      0.2270000000      12.2091031304      0.3798850707      0.0000000000
0.3813793316       168630.1182508038      0.2290000000      12.1812860902      0.3892246617      0.0000000000
0.3903288669       152383.5103495318      0.2310000000      12.1560268412      0.3986369915      0.0000000000
0.3993331380       137933.9208197848      0.2330000000      12.1331244008      0.4081192852      0.0000000000
0.4083893425       125058.8573490822      0.2350000000      12.1123945941      0.4176688088      0.0000000000
0.4174947388       113566.1576144663      0.2370000000      12.0936691556      0.4272828799      0.0000000000
0.4266466314       103289.4330876358      0.2390000000      12.0767931315      0.4369588525      0.0000000000
0.4358423812        94084.3537655263      0.2410000000      12.0616243804      0.4466941276      0.0000000000
0.4450794107        85825.5173495390      0.2430000000      12.0480330197      0.4564861597      0.0000000000
0.4543551889        78403.6589140909      0.2450000000      12.0358988478      0.4663324401      0.0000000000
0.4636672411        71723.4588306998      0.2470000000      12.0251116084      0.4762305086      0.0000000000
0.4730131253        65701.5013743533      0.2490000000      12.0155677321      0.4861779274      0.0000000000
0.4823904876        60264.8569774061      0.2510000000      12.0071748876      0.4961723412      0.0000000000
0.4917969912        55349.4159212004      0.2530000000      11.9998447424      0.5062114015      0.0000000000
0.5012303790        50898.8926523153      0.2550000000      11.9934975175      0.5162928338      0.0000000000
0.5106884121        46863.7057999371      0.2570000000      11.9880585141      0.5264143715      0.0000000000
0.5201689247        43200.1223140319      0.2590000000      11.9834586583      0.5365738158      0.0000000000
0.5296697904        39869.4990043502      0.2610000000      11.9796336441      0.5467689990      0.0000000000
0.5391889333        36837.6572393850      0.2630000000      11.9765240972      0.5569977973      0.0000000000
0.5487243315        34074.3129969965      0.2650000000      11.9740753364      0.5672581343      0.0000000000
0.5582740069        31552.5773803861      0.2670000000      11.9722362947      0.5775479708      0.0000000000
0.5678360163        29248.5334212460      0.2690000000      11.9709585383      0.5878652950      0.0000000000
0.5774084677        27140.8943620109      0.2710000000      11.9701972524      0.5982081404      0.0000000000
0.5869895319        25210.7166435053      0.2730000000      11.9699125163      0.6085745988      0.0000000000
0.5965774026        23441.0489923699      0.2750000000      11.9700650208      0.6189627776      0.0000000000
0.6061703290        21816.7591982573      0.2770000000      11.9706192835      0.6293708343      0.0000000000
0.6157666016        20324.2960084275      0.2790000000      11.9715420188      0.6397969629      0.0000000000
0.6253645464        18951.5045124822      0.2810000000      11.9728014847      0.6502393865      0.0000000000
0.6349625391        17687.4862239956      0.2830000000      11.9743687505      0.6606963738      0.0000000000
0.6445590005        16522.4493921331      0.2850000000      11.9762171829      0.6711662340      0.0000000000
0.6541523797        15447.5736762705      0.2870000000      11.9783207660      0.6816472986      0.0000000000
0.6637411808        14454.9271935599      0.2890000000      11.9806566001      0.6921379514      0.0000000000
0.6733239325        13537.3428591542      0.2910000000      11.9832019377      0.7026365948      0.0000000000
0.6828992125        12688.3574873568      0.2930000000      11.9859363426      0.7131416771      0.0000000000
0.6924656316        11902.1265323765      0.2950000000      11.9888404542      0.7236516753      0.0000000000
0.7020218396        11173.3608496053      0.2970000000      11.9918961990      0.7341651018      0.0000000000
0.7115665230        10497.2701468334      0.2990000000      11.9950867201      0.7446805021      0.0000000000
0.7210984041         9869.5079204155      0.3010000000      11.9983961771      0.7551964537      0.0000000000
0.7306162412         9286.1308781286      0.3030000000      12.0018099154      0.7657115674      0.0000000000
0.7401188213         8743.5500944633      0.3050000000      12.0053135840      0.7762244785      0.0000000000
0.7496049786         8238.5097719100      0.3070000000      12.0088950675      0.7867338680      0.0000000000
0.7590735637         7768.0344442167      0.3090000000      12.0125413774      0.7972384289      0.0000000000
0.7685234735         7329.4200743363      0.3110000000      12.0162416626      0.8077368988      0.0000000000
0.7779536361         6920.1989532087      0.3130000000      12.0199857295      0.8182280444      0.0000000000
0.7873630034         6538.1136399819      0.3150000000      12.0237633167      0.8287106526      0.0000000000
0.7967505557         6181.0992813639      0.3170000000      12.0275645370      0.8391835359      0.0000000000
0.8061153188         5847.2746149398      0.3190000000      12.0313816880      0.8496455523      0.0000000000
0.8154563321         5534.9088257286      0.3210000000      12.0352058893      0.8600955697      0.0000000000
0.8247726784         5242.4235463161      0.3230000000      12.0390306092      0.8705324988      0.0000000000
0.8340634518         4968.3618511160      0.3250000000      12.0428476991      0.8809552577      0.0000000000
0.8433277842         4711.3917947994      0.3270000000      12.0466506875      0.8913628024      0.0000000000
0.8525648418         4470.2916855093      0.3290000000      12.0504342517      0.9017541222      0.0000000000
0.8617738001         4243.9314907520      0.3310000000      12.0541916781      0.9121282121      0.0000000000
0.8709538761         4031.2773208878      0.3330000000      12.0579182885      0.9224841094      0.0000000000
0.8801043008         3831.3725742559      0.3350000000      12.0616085120      0.9328208624      0.0000000000
0.8892243405         3643.3392712135      0.3370000000      12.0652582873      0.9431375556      0.0000000000
0.8983132745         3466.3638433818      0.3390000000      12.0688626562      0.9534332834      0.0000000000
0.9073704182         3299.6987601759      0.3410000000      12.0724182311      0.9637071773      0.0000000000
0.9163950958         3142.6496776248      0.3430000000      12.0759204027      0.9739583746      0.0000000000
0.9253866716         2994.5793795415      0.3450000000      12.0793666977      0.9841860549      0.0000000000
0.9343445166         2854.8939651309      0.3470000000      12.0827531933      0.9943894011      0.0000000000
0.9432680318         2723.0461035730      0.3490000000      12.0860771018      1.0045676273      0.0000000000
0.9521566363         2598.5276109732      0.3510000000      12.0893355087      1.0147199642      0.0000000000
0.9610097763         2480.8692025288      0.3530000000      12.0925264286      1.0248456707      0.0000000000
0.9698269045         2369.6321273235      0.3550000000      12.0956465316      1.0349440093      0.0000000000
0.9786075107         2264.4131118947      0.3570000000      12.0986945683      1.0450142828      0.0000000000
0.9873510941         2164.8353182423      0.3590000000      12.1016683806      1.0550558009      0.0000000000
0.9960571700         2070.5479291599      0.3610000000      12.1045656684      1.0650678895      0.0000000000
1.0047252807         1981.2264024933      0.3630000000      12.1073851906      1.0750499024      0.0000000000
1.0133549826         1896.5678787367      0.3650000000      12.1101254346      1.0850012073      0.0000000000
1.0219458472         1816.2899358422      0.3670000000      12.1127847443      1.0949211866      0.0000000000
1.0304974674         1740.1301370067      0.3690000000      12.1153620110      1.1048092450      0.0000000000
1.0390094521         1667.8436232721      0.3710000000      12.1178561962      1.1146648031      0.0000000000
1.0474814272         1599.2021691969      0.3730000000      12.1202664382      1.1244872994      0.0000000000
1.0559130307         1533.9920732197      0.3750000000      12.1225915164      1.1342761839      0.0000000000
1.0643039214         1472.0144845715      0.3770000000      12.1248308515      1.1440309288      0.0000000000
1.0726537710         1413.0833674937      0.3790000000      12.1269837662      1.1537510193      0.0000000000
1.0809622670         1357.0247568236      0.3810000000      12.1290496752      1.1634359570      0.0000000000
1.0892291090         1303.6756755392      0.3830000000      12.1310278414      1.1730852559      0.0000000000
1.0974540152         1252.8841829859      0.3850000000      12.1329181144      1.1826984500      0.0000000000
1.1056367153         1204.5075875163      0.3870000000      12.1347200899      1.1922750849      0.0000000000
1.1137769526         1158.4122885467      0.3890000000      12.1364334550      1.2018147210      0.0000000000
1.1218744842         1114.4730803005      0.3910000000      12.1380580450      1.2113169329      0.0000000000
1.1299290803         1072.5725728564      0.3930000000      12.1395937286      1.2207813095      0.0000000000
1.1379405233         1032.6004691210      0.3950000000      12.1410403743      1.2302074524      0.0000000000
1.1459086087          994.4534738514      0.3970000000      12.1423980587      1.2395949777      0.0000000000
1.1538331433          958.0343460929      0.3990000000      12.1436667489      1.2489435134      0.0000000000
1.1617139466          923.2518799139      0.4010000000      12.1448465835      1.2582527015      0.0000000000
1.1695508485          890.0202347639      0.4030000000      12.1459376615      1.2675221952      0.0000000000
1.1773436921          858.2587506960      0.4050000000      12.1469402752      1.2767516622      0.0000000000
1.1850923282          827.8913761592      0.4070000000      12.1478544383      1.2859407786      0.0000000000
1.1927966215          798.8467350588      0.4090000000      12.1486805833      1.2950892363      0.0000000000
1.2004564470          771.0575959204      0.4110000000      12.1494191221      1.3041967379      0.0000000000
1.2080716874          744.4603932917      0.4130000000      12.1500702364      1.3132629956      0.0000000000
1.2156422351          718.9952162728      0.4150000000      12.1506340903      1.3222877315      0.0000000000
1.2231679974          694.6059482413      0.4170000000      12.1511114861      1.3312706852      0.0000000000
1.2306488859          671.2393134473      0.4190000000      12.1515027183      1.3402116011      0.0000000000
1.2380848227          648.8450652914      0.4210000000      12.1518081538      1.3491102353      0.0000000000
1.2454757414          627.3759447011      0.4230000000      12.1520285560      1.3579663575      0.0000000000
1.2528215786          606.7869453175      0.4250000000      12.1521639883      1.3667797406      0.0000000000
1.2601222865          587.0360072714      0.4270000000      12.1522154016      1.3755501756      0.0000000000
1.2673778205          568.0829843331      0.4290000000      12.1521831147      1.3842774575      0.0000000000
1.2745881466          549.8901505819      0.4310000000      12.1520678082      1.3929613936      0.0000000000
1.2817532385          532.4217400394      0.4330000000      12.1518701075      1.4016018001      0.0000000000
1.2888730756          515.6437861423      0.4350000000      12.1515904216      1.4101985004      0.0000000000
1.2959476488          499.5244036847      0.4370000000      12.1512297034      1.4187513312      0.0000000000
1.3029769505          484.0329887107      0.4390000000      12.1507880909      1.4272601315      0.0000000000
1.3099609873          469.1410226863      0.4410000000      12.1502667362      1.4357247570      0.0000000000
1.3168997671          454.8211166776      0.4430000000      12.1496660337      1.4441450654      0.0000000000
1.3237933081          441.0474871605      0.4450000000      12.1489868090      1.4525209267      0.0000000000
1.3306416335          427.7956348104      0.4470000000      12.1482297603      1.4608522174      0.0000000000
1.3374447722          415.0421969200      0.4490000000      12.1473954025      1.4691388207      0.0000000000
1.3442027621          402.7652375642      0.4510000000      12.1464847092      1.4773806314      0.0000000000
1.3509156424          390.9436035008      0.4530000000      12.1454979676      1.4855775459      0.0000000000
1.3575834648          379.5575823956      0.4550000000      12.1444363535      1.4937294761      0.0000000000
1.3642062802          368.5881031521      0.4570000000      12.1433001914      1.5018363334      0.0000000000
1.3707841508          358.0173212062      0.4590000000      12.1420905626      1.5098980433      0.0000000000
1.3773171400          347.8280473461      0.4610000000      12.1408079292      1.5179145329      0.0000000000
1.3838053194          338.0041011777      0.4630000000      12.1394532307      1.5258857403      0.0000000000
1.3902487649          328.5300215045      0.4650000000      12.1380272184      1.5338116089      0.0000000000
1.3966475561          319.3910591542      0.4670000000      12.1365305141      1.5416920875      0.0000000000
1.4030017798          310.5732387000      0.4690000000      12.1349639943      1.5495271336      0.0000000000
1.4093115233          302.0631145625      0.4710000000      12.1333280212      1.5573167067      0.0000000000
1.4155768863          293.8481715071      0.4730000000      12.1316239822      1.5650607816      0.0000000000
1.4217979644          285.9161509357      0.4750000000      12.1298520968      1.5727593288      0.0000000000
1.4279748650          278.2556671799      0.4770000000      12.1280136216      1.5804123340      0.0000000000
1.4341076923          270.8555553330      0.4790000000      12.1261087349      1.5880197795      0.0000000000
1.4401965610          263.7054309437      0.4810000000      12.1241385521      1.5955816614      0.0000000000
1.4462415868          256.7952752637      0.4830000000      12.1221037668      1.6030979779      0.0000000000
1.4522428900          250.1155448784      0.4850000000      12.1200051278      1.6105687330      0.0000000000
1.4582005944          243.6571352256      0.4870000000      12.1178434094      1.6179939365      0.0000000000
1.4641148279          237.4113666921      0.4890000000      12.1156194163      1.6253736038      0.0000000000
1.4699857192          231.3698308237      0.4910000000      12.1133335131      1.6327077519      0.0000000000
1.4758134068          225.5247602737      0.4930000000      12.1109870823      1.6399964111      0.0000000000
1.4815980257          219.8684547546      0.4950000000      12.1085804056      1.6472396079      0.0000000000
1.4873397182          214.3937300084      0.4970000000      12.1061144512      1.6544373791      0.0000000000
1.4930386273          209.0936197947      0.4990000000      12.1035897754      1.6615897627      0.0000000000
1.4986949017          203.9615435783      0.5010000000      12.1010073272      1.6686968053      0.0000000000
1.5043086912          198.9911645034      0.5030000000      12.0983678177      1.6757585554      0.0000000000
1.5098801469          194.1763681221      0.5050000000      12.0956717089      1.6827750642      0.0000000000
1.5154094262          189.5114091036      0.5070000000      12.0929199868      1.6897463917      0.0000000000
1.5208966873          184.9907309504      0.5090000000      12.0901133664      1.6966725997      0.0000000000
1.5263420903          180.6089999009      0.5110000000      12.0872524446      1.7035537536      0.0000000000
1.5317457981          176.3611234700      0.5130000000      12.0843379229      1.7103899232      0.0000000000
1.5371079779          172.2422710324      0.5150000000      12.0813707493      1.7171811847      0.0000000000
1.5424287974          168.2477589890      0.5170000000      12.0783515805      1.7239276157      0.0000000000
1.5477084241          164.3730452197      0.5190000000      12.0752807400      1.7306292949      0.0000000000
1.5529470341          160.6139452116      0.5210000000      12.0721595361      1.7372863130      0.0000000000
1.5581447983          156.9662490556      0.5230000000      12.0689881106      1.7438987543      0.0000000000
1.5633018951          153.4260777754      0.5250000000      12.0657675566      1.7504667148      0.0000000000
1.5684185017          149.9896215999      0.5270000000      12.0624983932      1.7569902892      0.0000000000
