# M(M_sol)                 Lambda          n_Bc(fm^-3)         R(km)            m_B(M_sol)        m_Bquar/M_B
0.1510454454     47307156.3598853126      0.0910000000      23.8492734212      0.1512840951      0.0000000000
0.1575459631     38567118.7855036557      0.0930000000      22.7980538512      0.1578757857      0.0000000000
0.1641902452     31692386.5619634278      0.0950000000      21.9046398884      0.1646192990      0.0000000000
0.1709688602     26223724.5771989040      0.0970000000      21.1381591482      0.1715053936      0.0000000000
0.1778731884     21833001.1793613322      0.0990000000      20.4751169656      0.1785256278      0.0000000000
0.1848953042     18279667.1758706383      0.1010000000      19.8973393893      0.1856722429      0.0000000000
0.1920278912     15383921.6447221283      0.1030000000      19.3905649543      0.1929380782      0.0000000000
0.1992641713     13009266.6167260837      0.1050000000      18.9434561596      0.2003165009      0.0000000000
0.2065978502     11050795.4119654167      0.1070000000      18.5468961964      0.2078013520      0.0000000000
0.2140230711      9427040.7083110567      0.1090000000      18.1934774642      0.2153869005      0.0000000000
0.2215343770      8074175.2648311397      0.1110000000      17.8771240684      0.2230678064      0.0000000000
0.2291266801      6941804.6680260487      0.1130000000      17.5928099732      0.2308390905      0.0000000000
0.2367318241      5997049.5791464904      0.1150000000      17.3383489100      0.2386311079      0.0000000000
0.2442571588      5212754.2537649758      0.1170000000      17.1120965425      0.2463488141      0.0000000000
0.2517660799      4551539.6075274274      0.1190000000      16.9081255422      0.2540570680      0.0000000000
0.2592739668      3989798.9388880446      0.1210000000      16.7230445417      0.2617716193      0.0000000000
0.2667875175      3509769.7642437257      0.1230000000      16.5542939364      0.2694993474      0.0000000000
0.2743103855      3097521.5294357724      0.1250000000      16.3998119253      0.2772440234      0.0000000000
0.2818448037      2741917.7208750308      0.1270000000      16.2578922786      0.2850079700      0.0000000000
0.2893922420      2433944.3761477862      0.1290000000      16.1270994357      0.2927927331      0.0000000000
0.2969537320      2166238.4236911419      0.1310000000      16.0062124048      0.3005994131      0.0000000000
0.3045300379      1932739.1088381028      0.1330000000      15.8941837397      0.3084288389      0.0000000000
0.3121217563      1728425.5234071284      0.1350000000      15.7901081413      0.3162816713      0.0000000000
0.3197293784      1549114.1047007993      0.1370000000      15.6931985314      0.3241584649      0.0000000000
0.3273533266      1391302.0638611692      0.1390000000      15.6027675320      0.3320597064      0.0000000000
0.3349939817      1252041.8470598834      0.1410000000      15.5182113937      0.3399858420      0.0000000000
0.3426516967      1128842.6391974287      0.1430000000      15.4389974313      0.3479372922      0.0000000000
0.3503268096      1019591.5561255986      0.1450000000      15.3646547551      0.3559144641      0.0000000000
0.3580196477       922489.0606308250      0.1470000000      15.2947644507      0.3639177562      0.0000000000
0.3657305345       835997.3883870835      0.1490000000      15.2289534965      0.3719475655      0.0000000000
0.3734597913       758797.6763841683      0.1510000000      15.1668880354      0.3800042891      0.0000000000
0.3812077397       689755.8225807719      0.1530000000      15.1082690999      0.3880883268      0.0000000000
0.3889746985       627893.1570912352      0.1550000000      15.0528273698      0.3962000776      0.0000000000
0.3967609876       572363.0938175143      0.1570000000      15.0003204836      0.4043399444      0.0000000000
0.4045669248       522431.0928991940      0.1590000000      14.9505291768      0.4125083296      0.0000000000
0.4123928360       477458.1766763281      0.1610000000      14.9032549148      0.4207056468      0.0000000000
0.4202390170       436887.3093364383      0.1630000000      14.8583175074      0.4289322804      0.0000000000
0.4281057844       400231.5491527640      0.1650000000      14.8155529762      0.4371886388      0.0000000000
0.4359934398       367064.3075641303      0.1670000000      14.7748118090      0.4454751167      0.0000000000
0.4439022788       337011.0617997489      0.1690000000      14.7359575420      0.4537921049      0.0000000000
0.4518325872       309742.3140053573      0.1710000000      14.6988653760      0.4621399862      0.0000000000
0.4597846405       284967.5201577572      0.1730000000      14.6634206839      0.4705191346      0.0000000000
0.4677587022       262430.1011947721      0.1750000000      14.6295184892      0.4789299135      0.0000000000
0.4757550223       241902.9624034005      0.1770000000      14.5970621678      0.4873726744      0.0000000000
0.4837738365       223184.7443382724      0.1790000000      14.5659626824      0.4958477555      0.0000000000
0.4918153642       206096.5870067411      0.1810000000      14.5361379493      0.5043554799      0.0000000000
0.4998798071       190479.4084182691      0.1830000000      14.5075120965      0.5128961537      0.0000000000
0.5079673443       176191.4164776372      0.1850000000      14.4800150624      0.5214700613      0.0000000000
0.5160781478       163106.0267090173      0.1870000000      14.4535816362      0.5300774809      0.0000000000
0.5242123565       151110.1201050328      0.1890000000      14.4281517116      0.5387186575      0.0000000000
0.5323700916       140102.3753986744      0.1910000000      14.4036691684      0.5473938192      0.0000000000
0.5405514505       129992.0136106664      0.1930000000      14.3800819883      0.5561031697      0.0000000000
0.5487565080       120697.4765588406      0.1950000000      14.3573415776      0.5648468907      0.0000000000
0.5569853150       112145.4472180744      0.1970000000      14.3354028174      0.5736251394      0.0000000000
0.5652378953       104269.9465288467      0.1990000000      14.3142233813      0.5824380455      0.0000000000
0.5735142483        97011.4793425555      0.2010000000      14.2937638619      0.5912857137      0.0000000000
0.5818143473        90316.3498544944      0.2030000000      14.2739873229      0.6001682218      0.0000000000
0.5901381378        84136.0516763050      0.2050000000      14.2548592130      0.6090856190      0.0000000000
0.5984855381        78426.6835518667      0.2070000000      14.2363470108      0.6180379259      0.0000000000
0.6068564402        73148.4991754490      0.2090000000      14.2184203915      0.6270251356      0.0000000000
0.6152507063        68265.4647085420      0.2110000000      14.2010506941      0.6360472099      0.0000000000
0.6236681720        63744.8436514138      0.2130000000      14.1842109544      0.6451040823      0.0000000000
0.6321086435        59556.9277114606      0.2150000000      14.1678758773      0.6541956551      0.0000000000
0.6405718997        55674.6739227794      0.2170000000      14.1520215672      0.6633218010      0.0000000000
0.6490576896        52073.4670978798      0.2190000000      14.1366254622      0.6724823608      0.0000000000
0.6575657355        48730.8735471760      0.2210000000      14.1216663093      0.6816771463      0.0000000000
0.6660957297        45626.4287597863      0.2230000000      14.1071238389      0.6909059365      0.0000000000
0.6746473383        42741.4495110108      0.2250000000      14.0929791403      0.7001684818      0.0000000000
0.6832201979        40058.8665909378      0.2270000000      14.0792140992      0.7094644997      0.0000000000
0.6918139185        37563.0591230094      0.2290000000      14.0658116379      0.7187936787      0.0000000000
0.7004280814        35239.7409874321      0.2310000000      14.0527554208      0.7281556747      0.0000000000
0.7090622425        33075.8124436904      0.2330000000      14.0400301283      0.7375501156      0.0000000000
0.7177159302        31059.2696550000      0.2350000000      14.0276210444      0.7469765977      0.0000000000
0.7263886466        29179.0962647572      0.2370000000      14.0155142171      0.7564346876      0.0000000000
0.7350798686        27425.1799657762      0.2390000000      14.0036963935      0.7659239227      0.0000000000
0.7437890477        25788.2218132381      0.2410000000      13.9921548196      0.7754438114      0.0000000000
0.7525156112        24259.6757589082      0.2430000000      13.9808775331      0.7849938338      0.0000000000
0.7612589617        22831.6771314485      0.2450000000      13.9698529395      0.7945734408      0.0000000000
0.7700184791        21496.9830208720      0.2470000000      13.9590700414      0.8041820564      0.0000000000
0.7787935205        20248.9179442884      0.2490000000      13.9485183116      0.8138190777      0.0000000000
0.7875834213        19081.3273474052      0.2510000000      13.9381877099      0.8234838754      0.0000000000
0.7963874952        17988.5345284578      0.2530000000      13.9280686119      0.8331757938      0.0000000000
0.8052050354        16965.2974423905      0.2550000000      13.9181517077      0.8428941519      0.0000000000
0.8140353163        16006.7729163862      0.2570000000      13.9084282435      0.8526382456      0.0000000000
0.8228775918        15108.4852872035      0.2590000000      13.8988896552      0.8624073445      0.0000000000
0.8317310991        14266.2960420890      0.2610000000      13.8895278678      0.8722006975      0.0000000000
0.8405950577        13476.3744856916      0.2630000000      13.8803350587      0.8820175301      0.0000000000
0.8494686707        12735.1741052095      0.2650000000      13.8713037287      0.8918570467      0.0000000000
0.8583511255        12039.4087483663      0.2670000000      13.8624266231      0.9017184306      0.0000000000
0.8672415949        11386.0346836966      0.2690000000      13.8536968601      0.9116008454      0.0000000000
0.8761392381        10772.2264856523      0.2710000000      13.8451077201      0.9215034359      0.0000000000
0.8850432010        10195.3662231293      0.2730000000      13.8366528258      0.9314253282      0.0000000000
0.8939526176         9653.0214560200      0.2750000000      13.8283259865      0.9413656312      0.0000000000
0.9028666111         9142.9336759851      0.2770000000      13.8201212835      0.9513234378      0.0000000000
0.9117842939         8663.0045381495      0.2790000000      13.8120329232      0.9612978247      0.0000000000
0.9207047694         8211.2835201365      0.2810000000      13.8040554188      0.9712878540      0.0000000000
0.9296271324         7785.9567944631      0.2830000000      13.7961834085      0.9812925741      0.0000000000
0.9385504703         7385.3366219734      0.2850000000      13.7884118271      0.9913110208      0.0000000000
0.9474738634         7007.8525682609      0.2870000000      13.7807356794      1.0013422169      0.0000000000
0.9563963871         6652.0411655862      0.2890000000      13.7731502432      1.0113851756      0.0000000000
0.9653171107         6316.5396526971      0.2910000000      13.7656508313      1.0214388982      0.0000000000
0.9742351000         6000.0786935527      0.2930000000      13.7582330557      1.0315023775      0.0000000000
0.9831494179         5701.4733489355      0.2950000000      13.7508926481      1.0415745982      0.0000000000
0.9920591241         5419.6199665917      0.2970000000      13.7436253946      1.0516545362      0.0000000000
1.0009632776         5153.4877300046      0.2990000000      13.7364273861      1.0617411621      0.0000000000
1.0098609360         4902.1143151874      0.3010000000      13.7292947197      1.0718334396      0.0000000000
1.0187511574         4664.6019201728      0.3030000000      13.7222236916      1.0819303280      0.0000000000
1.0276330004         4440.1111962417      0.3050000000      13.7152107176      1.0920307821      0.0000000000
1.0365055256         4227.8580132736      0.3070000000      13.7082523270      1.1021337541      0.0000000000
1.0453677953         4027.1092406307      0.3090000000      13.7013451835      1.1122381923      0.0000000000
1.0542188752         3837.1796819414      0.3110000000      13.6944860598      1.1223430446      0.0000000000
1.0630578355         3657.4271598878      0.3130000000      13.6876718308      1.1324472580      0.0000000000
1.0718837497         3487.2523355195      0.3150000000      13.6808995015      1.1425497785      0.0000000000
1.0806956971         3326.0931289763      0.3170000000      13.6741661846      1.1526495534      0.0000000000
1.0894927632         3173.4229667781      0.3190000000      13.6674690938      1.1627455320      0.0000000000
1.0982740387         3028.7494359215      0.3210000000      13.6608054873      1.1728366641      0.0000000000
1.1070386228         2891.6103487827      0.3230000000      13.6541728131      1.1829219040      0.0000000000
1.1157856213         2761.5728318049      0.3250000000      13.6475685612      1.1930002088      0.0000000000
1.1245141488         2638.2307549875      0.3270000000      13.6409903166      1.2030705399      0.0000000000
1.1332233284         2521.2033291322      0.3290000000      13.6344357805      1.2131318638      0.0000000000
1.1419122925         2410.1331149399      0.3310000000      13.6279026571      1.2231831523      0.0000000000
1.1505801834         2304.6847157132      0.3330000000      13.6213888410      1.2332233835      0.0000000000
1.1592261536         2204.5431454859      0.3350000000      13.6148922697      1.2432515424      0.0000000000
1.1678493660         2109.4126923116      0.3370000000      13.6084109039      1.2532666206      0.0000000000
1.1764489954         2019.0154471092      0.3390000000      13.6019428519      1.2632676187      0.0000000000
1.1850242275         1933.0902196030      0.3410000000      13.5954862966      1.2732535452      0.0000000000
1.1935742603         1851.3914408085      0.3430000000      13.5890394198      1.2832234173      0.0000000000
1.2020983040         1773.6883819415      0.3450000000      13.5826005670      1.2931762621      0.0000000000
1.2105955814         1699.7638759192      0.3470000000      13.5761680813      1.3031111162      0.0000000000
1.2190653284         1629.4135763642      0.3490000000      13.5697404175      1.3130270271      0.0000000000
1.2275067941         1562.4452952720      0.3510000000      13.5633160593      1.3229230524      0.0000000000
1.2359192414         1498.6778975914      0.3530000000      13.5568935871      1.3327982617      0.0000000000
1.2443019469         1437.9408920040      0.3550000000      13.5504716183      1.3426517356      0.0000000000
1.2526542012         1380.0738139901      0.3570000000      13.5440488412      1.3524825672      0.0000000000
1.2609753095         1324.9251850458      0.3590000000      13.5376240118      1.3622898617      0.0000000000
1.2692645911         1272.3525746994      0.3610000000      13.5311959071      1.3720727367      0.0000000000
1.2775213827         1222.2214459906      0.3630000000      13.5247633916      1.3818303263      0.0000000000
1.2857450284         1174.4050446324      0.3650000000      13.5183253787      1.3915617686      0.0000000000
1.2939348941         1128.7837335698      0.3670000000      13.5118808325      1.4012662234      0.0000000000
1.3020903603         1085.2447078917      0.3690000000      13.5054287522      1.4109428641      0.0000000000
1.3102108215         1043.6813789320      0.3710000000      13.4989681956      1.4205908763      0.0000000000
1.3182956858         1003.9933024664      0.3730000000      13.4924982820      1.4302094578      0.0000000000
1.3263443792          966.0854173635      0.3750000000      13.4860181567      1.4397978241      0.0000000000
1.3343563422          929.8680922182      0.3770000000      13.4795270206      1.4493552040      0.0000000000
1.3423310308          895.2565969225      0.3790000000      13.4730241093      1.4588808413      0.0000000000
1.3502679167          862.1708177290      0.3810000000      13.4665087091      1.4683739947      0.0000000000
1.3581664872          830.5350067702      0.3830000000      13.4599801615      1.4778339383      0.0000000000
1.3660262447          800.2776476899      0.3850000000      13.4534377975      1.4872599608      0.0000000000
1.3738467075          771.3309821186      0.3870000000      13.4468810501      1.4966513669      0.0000000000
1.3816274094          743.6309571191      0.3890000000      13.4403093329      1.5060074761      0.0000000000
1.3893678996          717.1169355528      0.3910000000      13.4337221489      1.5153276240      0.0000000000
1.3970677426          691.7315659333      0.3930000000      13.4271190047      1.5246111610      0.0000000000
1.4047265184          667.4204872541      0.3950000000      13.4204994274      1.5338574538      0.0000000000
1.4123438220          644.1322838037      0.3970000000      13.4138629979      1.5430658840      0.0000000000
1.4199192641          621.8181580738      0.3990000000      13.4072093595      1.5522358496      0.0000000000
1.4274524699          600.4319465470      0.4010000000      13.4005381160      1.5613667635      0.0000000000
1.4349430800          579.9299048679      0.4030000000      13.3938489528      1.5704580546      0.0000000000
1.4423907496          560.2705295980      0.4050000000      13.3871415716      1.5795091672      0.0000000000
1.4497951487          541.4144575978      0.4070000000      13.3804156982      1.5885195614      0.0000000000
1.4571559622          523.3243726729      0.4090000000      13.3736711079      1.5974887126      0.0000000000
1.4644728889          505.9648732361      0.4110000000      13.3669075349      1.6064161117      0.0000000000
1.4717456425          489.3023515589      0.4130000000      13.3601248307      1.6153012651      0.0000000000
1.4789739505          473.3049317401      0.4150000000      13.3533228094      1.6241436945      0.0000000000
1.4861575546          457.9423376571      0.4170000000      13.3465013192      1.6329429367      0.0000000000
1.4932962101          443.1858020093      0.4190000000      13.3396602496      1.6416985440      0.0000000000
1.5003896863          429.0080386735      0.4210000000      13.3327995016      1.6504100833      0.0000000000
1.5074377657          415.3830611367      0.4230000000      13.3259189679      1.6590771368      0.0000000000
1.5144402442          402.2862493015      0.4250000000      13.3190186167      1.6676993013      0.0000000000
1.5213969310          389.6941491772      0.4270000000      13.3120983970      1.6762761887      0.0000000000
1.5283076479          377.5844887869      0.4290000000      13.3051582952      1.6848074250      0.0000000000
1.5351722276          365.9360521797      0.4310000000      13.2981982870      1.6932926484      0.0000000000
1.5419905214          354.7286896848      0.4330000000      13.2912184098      1.7017315191      0.0000000000
1.5487623868          343.9432475729      0.4350000000      13.2842186712      1.7101237035      0.0000000000
1.5554876956          333.5614349779      0.4370000000      13.2771991392      1.7184688851      0.0000000000
1.5621663313          323.5658992288      0.4390000000      13.2701598643      1.7267667607      0.0000000000
1.5687981892          313.9400978479      0.4410000000      13.2631009310      1.7350170412      0.0000000000
1.5753831762          304.6682691148      0.4430000000      13.2560224056      1.7432194508      0.0000000000
1.5819212104          295.7354104882      0.4450000000      13.2489244223      1.7513737272      0.0000000000
1.5884122209          287.1272269016      0.4470000000      13.2418070816      1.7594796213      0.0000000000
1.5948561477          278.8301213268      0.4490000000      13.2346705129      1.7675368967      0.0000000000
