# M(M_sol)                 Lambda          n_Bc(fm^-3)         R(km)            m_B(M_sol)        m_Bquar/M_B
0.1503131282     12421249.0572943836      0.1650000000      17.2113003221      0.1505408222      0.0000000000
0.1571038795      9900768.4574601203      0.1670000000      16.5743514620      0.1574339668      0.0000000000
0.1642356064      7924916.4414093746      0.1690000000      16.0210204069      0.1646816115      0.0000000000
0.1717052276      6369584.1449285885      0.1710000000      15.5388212403      0.1722817574      0.0000000000
0.1795095204      5140374.1189930467      0.1730000000      15.1174387409      0.1802322902      0.0000000000
0.1876452458      4165094.0255104806      0.1750000000      14.7483078784      0.1885311045      0.0000000000
0.1961090177      3388285.3544834685      0.1770000000      14.4242744023      0.1971759686      0.0000000000
0.2048973968      2767181.5192852798      0.1790000000      14.1393396612      0.2061646182      0.0000000000
0.2140067323      2268676.2293308126      0.1810000000      13.8884372533      0.2154945919      0.0000000000
0.2234332476      1867055.3586968565      0.1830000000      13.6672742843      0.2251633168      0.0000000000
0.2331729768      1542276.8990914861      0.1850000000      13.4721935987      0.2351680399      0.0000000000
0.2432217446      1278665.0667993398      0.1870000000      13.3000634805      0.2455058058      0.0000000000
0.2535751846      1063918.2808896482      0.1890000000      13.1481933333      0.2561734713      0.0000000000
0.2642287234       888349.1530006420      0.1910000000      13.0142609591      0.2671676871      0.0000000000
0.2751775348       744301.8422340510      0.1930000000      12.8962506340      0.2784848467      0.0000000000
0.2864166187       625706.8216982320      0.1950000000      12.7924127847      0.2901211653      0.0000000000
0.2979407075       527733.9420448738      0.1970000000      12.7012156949      0.3020725787      0.0000000000
0.3097443466       446527.3874653976      0.1990000000      12.6213198918      0.3143348249      0.0000000000
0.3218218350       378997.8671420903      0.2010000000      12.5515452217      0.3269033773      0.0000000000
0.3341672829       322662.6067950755      0.2030000000      12.4908529184      0.3397735029      0.0000000000
0.3467745427       275518.7777116694      0.2050000000      12.4383193484      0.3529401855      0.0000000000
0.3596373156       235946.4282920628      0.2070000000      12.3931290280      0.3663982347      0.0000000000
0.3727490938       202630.4516048241      0.2090000000      12.3545550635      0.3801422211      0.0000000000
0.3861031804       174499.9333368315      0.2110000000      12.3219481227      0.3941664951      0.0000000000
0.3996927049       150680.1249507060      0.2130000000      12.2947272383      0.4084651986      0.0000000000
0.4135106497       130454.4263878697      0.2150000000      12.2723727914      0.4230322903      0.0000000000
0.4275498330       113233.8719090526      0.2170000000      12.2544165080      0.4378615249      0.0000000000
0.4418029427        98533.0746533470      0.2190000000      12.2404371404      0.4529464848      0.0000000000
0.4562625315        85950.8035138149      0.2210000000      12.2300536901      0.4682805732      0.0000000000
0.4709210680        75154.5633059526      0.2230000000      12.2229239611      0.4838570649      0.0000000000
0.4857708869        65867.8884576492      0.2250000000      12.2187349741      0.4996690503      0.0000000000
0.5008042714        57860.4521440182      0.2270000000      12.2172056021      0.5157095214      0.0000000000
0.5160133982        50939.7115493053      0.2290000000      12.2180773248      0.5319713103      0.0000000000
0.5313904258        44944.4353023663      0.2310000000      12.2211183319      0.5484471811      0.0000000000
0.5469274410        39739.1406195978      0.2330000000      12.2261144978      0.5651297712      0.0000000000
0.5626165062        35209.8019389153      0.2350000000      12.2328728392      0.5820116397      0.0000000000
0.5784496593        31260.1374511936      0.2370000000      12.2412149507      0.5990852651      0.0000000000
0.5944189369        27808.7083517996      0.2390000000      12.2509786329      0.6163430695      0.0000000000
0.6105163807        24786.4499945841      0.2410000000      12.2620153141      0.6337774236      0.0000000000
0.6267340529        22134.6718038811      0.2430000000      12.2741892629      0.6513806623      0.0000000000
0.6430640275        19803.3611843972      0.2450000000      12.2873744391      0.6691450739      0.0000000000
0.6594984431        17749.8464098176      0.2470000000      12.3014573613      0.6870629568      0.0000000000
0.6760294791        15937.6129173164      0.2490000000      12.3163330542      0.7051265931      0.0000000000
0.6926493663        14335.3519210220      0.2510000000      12.3319041853      0.7233282586      0.0000000000
0.7093504172        12916.1770637380      0.2530000000      12.3480823921      0.7416602567      0.0000000000
0.7261250151        11656.9390587483      0.2550000000      12.3647856257      0.7601149055      0.0000000000
0.7429656338        10537.6755804715      0.2570000000      12.3819385916      0.7786845593      0.0000000000
0.7598648468         9541.1394244849      0.2590000000      12.3994723791      0.7973616190      0.0000000000
0.7768153289         8652.3968668789      0.2610000000      12.4173232789      0.8161385341      0.0000000000
0.7938098645         7858.4963001178      0.2630000000      12.4354326302      0.8350078119      0.0000000000
0.8108413593         7148.1847639653      0.2650000000      12.4537466991      0.8539620314      0.0000000000
0.8279028375         6511.6657359809      0.2670000000      12.4722156392      0.8729938403      0.0000000000
0.8449874578         5940.3988519361      0.2690000000      12.4907939476      0.8920959737      0.0000000000
0.8620885118         5426.9238285737      0.2710000000      12.5094396572      0.9112612534      0.0000000000
0.8791994300         4964.7143674767      0.2730000000      12.5281142341      0.9304825955      0.0000000000
0.8963137845         4548.0498416530      0.2750000000      12.5467819497      0.9497530140      0.0000000000
0.9134253038         4171.9117045774      0.2770000000      12.5654109473      0.9690656391      0.0000000000
0.9305278495         3831.8842488240      0.2790000000      12.5839702879      0.9884136924      0.0000000000
0.9476154528         3524.0826056750      0.2810000000      12.6024331164      1.0077905286      0.0000000000
0.9646823007         3245.0808090420      0.2830000000      12.6207748299      1.0271896223      0.0000000000
0.9817227286         2991.8516285829      0.2850000000      12.6389720608      1.0466045605      0.0000000000
0.9987312329         2761.7180364789      0.2870000000      12.6570034751      1.0660290584      0.0000000000
1.0157024824         2552.3104286932      0.2890000000      12.6748507701      1.0854569747      0.0000000000
1.0326312947         2361.5252803845      0.2910000000      12.6924959932      1.1048822855      0.0000000000
1.0495126626         2187.4959181132      0.2930000000      12.7099240330      1.1242991169      0.0000000000
1.0663417280         2028.5603248223      0.2950000000      12.7271198962      1.1437017165      0.0000000000
1.0831138094         1883.2398800833      0.2970000000      12.7440712938      1.1630844870      0.0000000000
1.0998243746         1750.2147256890      0.2990000000      12.7607658828      1.1824419562      0.0000000000
1.1164690645         1628.3073143109      0.3010000000      12.7771936443      1.2017688068      0.0000000000
1.1330436783         1516.4644704374      0.3030000000      12.7933453208      1.2210598612      0.0000000000
1.1495441710         1413.7432896436      0.3050000000      12.8092122763      1.2403100802      0.0000000000
1.1659666634         1319.2990827493      0.3070000000      12.8247875270      1.2595145765      0.0000000000
1.1823074351         1232.3739271546      0.3090000000      12.8400650703      1.2786686089      0.0000000000
1.1985629043         1152.2858144643      0.3110000000      12.8550380880      1.2977675602      0.0000000000
1.2147296627         1078.4225523100      0.3130000000      12.8697024755      1.3168069800      0.0000000000
1.2308044486         1010.2325722676      0.3150000000      12.8840543653      1.3357825557      0.0000000000
1.2467841413          947.2180502743      0.3170000000      12.8980895306      1.3546901066      0.0000000000
1.2626657822          888.9306386528      0.3190000000      12.9118061531      1.3735256123      0.0000000000
1.2784465405          834.9642517104      0.3210000000      12.9252009372      1.3922851721      0.0000000000
1.2941237394          784.9523108639      0.3230000000      12.9382725672      1.4109650397      0.0000000000
1.3096948429          738.5629128320      0.3250000000      12.9510203094      1.4295616084      0.0000000000
1.3251574468          695.4950036878      0.3270000000      12.9634433424      1.4480714025      0.0000000000
1.3405092719          655.4750247541      0.3290000000      12.9755402392      1.4664910703      0.0000000000
1.3557481919          618.2555414810      0.3310000000      12.9873124813      1.4848174207      0.0000000000
1.3708721880          583.6107256833      0.3330000000      12.9987595710      1.5030473690      0.0000000000
1.3858793778          551.3355465505      0.3350000000      13.0098826444      1.5211779740      0.0000000000
1.4007679971          521.2430632375      0.3370000000      13.0206826608      1.5392064178      0.0000000000
1.4155364025          493.1629847302      0.3390000000      13.0311611842      1.5571300105      0.0000000000
1.4301830638          466.9397785064      0.3410000000      13.0413196812      1.5749461824      0.0000000000
1.4447065653          442.4314364577      0.3430000000      13.0511600500      1.5926524872      0.0000000000
1.4591056008          419.5081629521      0.3450000000      13.0606844691      1.6102465977      0.0000000000
1.4733789698          398.0511480752      0.3470000000      13.0698951954      1.6277263024      0.0000000000
1.4875255750          377.9516056726      0.3490000000      13.0787946624      1.6450895038      0.0000000000
1.5015444217          359.1098579317      0.3510000000      13.0873857640      1.6623342193      0.0000000000
1.5154346085          341.4343796197      0.3530000000      13.0956710985      1.6794585710      0.0000000000
1.5291953301          324.8412047426      0.3550000000      13.1036536534      1.6964607903      0.0000000000
1.5428258734          309.2531794156      0.3570000000      13.1113366811      1.7133392149      0.0000000000
1.5563256112          294.5993304523      0.3590000000      13.1187233322      1.7300922818      0.0000000000
1.5696940020          280.8143131106      0.3610000000      13.1258168739      1.7467185281      0.0000000000
1.5829305868          267.8379938973      0.3630000000      13.1326208344      1.7632165887      0.0000000000
1.5960349820          255.6148463452      0.3650000000      13.1391382450      1.7795851882      0.0000000000
1.6090068882          244.0937975599      0.3670000000      13.1453732801      1.7958231528      0.0000000000
1.6218460736          233.2275957230      0.3690000000      13.1513294154      1.8119293914      0.0000000000
1.6345523761          222.9725612510      0.3710000000      13.1570100715      1.8279028979      0.0000000000
1.6471257060          213.2883937543      0.3730000000      13.1624192599      1.8437427570      0.0000000000
1.6595660358          204.1377496933      0.3750000000      13.1675606442      1.8594481308      0.0000000000
1.6718734016          195.4860728571      0.3770000000      13.1724380420      1.8750182629      0.0000000000
1.6840479000          187.3013506210      0.3790000000      13.1770553861      1.8904524742      0.0000000000
1.6960896822          179.5538570480      0.3810000000      13.1814161536      1.9057501567      0.0000000000
1.7079989612          172.2161091785      0.3830000000      13.1855247801      1.9209107833      0.0000000000
1.7197759946          165.2624779079      0.3850000000      13.1893846051      1.9359338869      0.0000000000
1.7314210975          158.6692489549      0.3870000000      13.1929999411      1.9508190770      0.0000000000
1.7429346280          152.4143071438      0.3890000000      13.1963743645      1.9655660225      0.0000000000
1.7543169939          146.4771323091      0.3910000000      13.1995119871      1.9801744603      0.0000000000
1.7655686433          140.8385785919      0.3930000000      13.2024164257      1.9946441840      0.0000000000
1.7766900696          135.4808516515      0.3950000000      13.2050917926      2.0089750515      0.0000000000
1.7876818037          130.3873520671      0.3970000000      13.2075418566      2.0231669743      0.0000000000
1.7985444139          125.5425977476      0.3990000000      13.2097704368      2.0372199191      0.0000000000
1.8092785050          120.9321436375      0.4010000000      13.2117813352      2.0511339063      0.0000000000
1.8198847161          116.5425082694      0.4030000000      13.2135783901      2.0649090077      0.0000000000
1.8303637167          112.3610887578      0.4050000000      13.2151652735      2.0785453425      0.0000000000
1.8407162087          108.3761157869      0.4070000000      13.2165458296      2.0920430790      0.0000000000
1.8509429206          104.5765730052      0.4090000000      13.2177237033      2.1054024292      0.0000000000
1.8610446091          100.9521549301      0.4110000000      13.2187025620      2.1186236493      0.0000000000
1.8710220563           97.4932148192      0.4130000000      13.2194861449      2.1317070378      0.0000000000
1.8808760667           94.1907094029      0.4150000000      13.2200779077      2.1446529313      0.0000000000
1.8906074688           91.0361685119      0.4170000000      13.2204815416      2.1574617069      0.0000000000
1.9002171113           88.0216463018      0.4190000000      13.2207005708      2.1701337773      0.0000000000
1.9097058619           85.1396842080      0.4210000000      13.2207384623      2.1826695897      0.0000000000
1.9190746073           82.3832873923      0.4230000000      13.2205987058      2.1950696262      0.0000000000
1.9283242506           79.7458800283      0.4250000000      13.2202847452      2.2073343998      0.0000000000
1.9374557100           77.2212819935      0.4270000000      13.2197998563      2.2194644540      0.0000000000
1.9464699194           74.8036852053      0.4290000000      13.2191474865      2.2314603623      0.0000000000
1.9553678249           72.4876268407      0.4310000000      13.2183308910      2.2433227251      0.0000000000
1.9641503852           70.2679639806      0.4330000000      13.2173533484      2.2550521694      0.0000000000
1.9728185698           68.1398531850      0.4350000000      13.2162180271      2.2666493470      0.0000000000
1.9813733586           66.0987353056      0.4370000000      13.2149281427      2.2781149338      0.0000000000
1.9898157403           64.1403081968      0.4390000000      13.2134867769      2.2894496279      0.0000000000
1.9981467120           62.2605218492      0.4410000000      13.2118970530      2.3006541490      0.0000000000
2.0063672779           60.4555498531      0.4430000000      13.2101619735      2.3117292368      0.0000000000
2.0144784484           58.7217843298      0.4450000000      13.2082845590      2.3226756499      0.0000000000
2.0224812399           57.0558190287      0.4470000000      13.2062677669      2.3334941651      0.0000000000
2.0303766729           55.4544324510      0.4490000000      13.2041144656      2.3441855757      0.0000000000
2.0381657722           53.9145855169      0.4510000000      13.2018275264      2.3547506910      0.0000000000
2.0458495661           52.4334024365      0.4530000000      13.1994098098      2.3651903355      0.0000000000
2.0534290853           51.0081627425      0.4550000000      13.1968640498      2.3755053473      0.0000000000
2.0609053616           49.6362926260      0.4570000000      13.1941929567      2.3856965770      0.0000000000
2.0682794294           48.3153571958      0.4590000000      13.1913992667      2.3957648884      0.0000000000
2.0755523231           47.0430497945      0.4610000000      13.1884856217      2.4057111559      0.0000000000
2.0827250767           45.8171836313      0.4630000000      13.1854545816      2.4155362638      0.0000000000
2.0897987247           44.6356895308      0.4650000000      13.1823087961      2.4252411074      0.0000000000
2.0967742995           43.4966013703      0.4670000000      13.1790506390      2.4348265890      0.0000000000
2.1036528327           42.3980568324      0.4690000000      13.1756826619      2.4442936200      0.0000000000
2.1104353543           41.3382912161      0.4710000000      13.1722073541      2.4536431201      0.0000000000
2.1171228906           40.3156238689      0.4730000000      13.1686269995      2.4628760133      0.0000000000
2.1237164664           39.3284636212      0.4750000000      13.1649440252      2.4719932319      0.0000000000
2.1302171025           38.3752972137      0.4770000000      13.1611607323      2.4809957124      0.0000000000
2.1366258166           37.4546869444      0.4790000000      13.1572794155      2.4898843966      0.0000000000
2.1429436208           36.5652632619      0.4810000000      13.1533021746      2.4986602285      0.0000000000
2.1491715255           35.7057292385      0.4830000000      13.1492313528      2.5073241592      0.0000000000
2.1553105343           34.8748474639      0.4850000000      13.1450690470      2.5158771399      0.0000000000
2.1613616469           34.0714416719      0.4870000000      13.1408173958      2.5243201261      0.0000000000
2.1673258573           33.2943905446      0.4890000000      13.1364784508      2.5326540737      0.0000000000
2.1732041538           32.5426272119      0.4910000000      13.1320542196      2.5408799412      0.0000000000
2.1789975196           31.8151365027      0.4930000000      13.1275467675      2.5489986880      0.0000000000
2.1847069315           31.1109498194      0.4950000000      13.1229580477      2.5570112743      0.0000000000
2.1903333602           30.4291444536      0.4970000000      13.1182900029      2.5649186601      0.0000000000
2.1958777693           29.7688386256      0.4990000000      13.1135444795      2.5727218047      0.0000000000
2.2013411174           29.1291956814      0.5010000000      13.1087234643      2.5804216688      0.0000000000
2.2067243538           28.5094101686      0.5030000000      13.1038285488      2.5880192089      0.0000000000
2.2120284235           27.9087213968      0.5050000000      13.0988617788      2.5955153836      0.0000000000
2.2172542623           27.3263967039      0.5070000000      13.0938247333      2.6029111474      0.0000000000
2.2224027998           26.7617400966      0.5090000000      13.0887192092      2.6102074534      0.0000000000
2.2274749587           26.2140872760      0.5110000000      13.0835470309      2.6174052544      0.0000000000
2.2324716520           25.6827976288      0.5130000000      13.0783096174      2.6245054963      0.0000000000
2.2373937873           25.1672651758      0.5150000000      13.0730087425      2.6315091261      0.0000000000
2.2422422638           24.6669082135      0.5170000000      13.0676460156      2.6384170864      0.0000000000
2.2470179722           24.1811685455      0.5190000000      13.0622229452      2.6452303153      0.0000000000
2.2517217961           23.7095144860      0.5210000000      13.0567410662      2.6519497489      0.0000000000
2.2563546109           23.2514377417      0.5230000000      13.0512020014      2.6585763186      0.0000000000
