# M(M_sol)                 Lambda          n_Bc(fm^-3)         R(km)            m_B(M_sol)        m_Bquar/M_B
0.1537803893     34313025.1887066960      0.1130000000      22.0231686423      0.1540213361      0.0000000000
0.1577438006     30042385.6016869731      0.1150000000      21.4184436140      0.1580397068      0.0000000000
0.1617345205     26404617.6619259454      0.1170000000      20.8734500711      0.1620881106      0.0000000000
0.1657702372     23275523.0948181562      0.1190000000      20.3778139095      0.1661845498      0.0000000000
0.1698684216     20561640.5948439203      0.1210000000      19.9234475819      0.1703468491      0.0000000000
0.1740373590     18196200.7661135234      0.1230000000      19.5048465950      0.1745835391      0.0000000000
0.1782831888     16126678.8710192535      0.1250000000      19.1176789491      0.1789009900      0.0000000000
0.1826111603     14310491.2466134503      0.1270000000      18.7583952489      0.1833046835      0.0000000000
0.1870260658     12712528.0905819032      0.1290000000      18.4240279498      0.1877996521      0.0000000000
0.1915324312     11303489.8697223570      0.1310000000      18.1120620022      0.1923906720      0.0000000000
0.1961346091     10058711.9053868130      0.1330000000      17.8203468659      0.1970823583      0.0000000000
0.2008368261      8957264.7164674923      0.1350000000      17.5470271898      0.2018792125      0.0000000000
0.2056432077      7981282.6410163129      0.1370000000      17.2904925122      0.2067856486      0.0000000000
0.2105577927      7115426.5497424630      0.1390000000      17.0493365571      0.2118060080      0.0000000000
0.2155845376      6346465.4782729037      0.1410000000      16.8223246669      0.2169445638      0.0000000000
0.2207273174      5662937.3568503680      0.1430000000      16.6083674880      0.2222055229      0.0000000000
0.2259899219      5054874.8395057777      0.1450000000      16.4064993426      0.2275930214      0.0000000000
0.2313760535      4513580.6006068243      0.1470000000      16.2158603914      0.2331111234      0.0000000000
0.2368893209      4031443.4990624837      0.1490000000      16.0356820087      0.2387638146      0.0000000000
0.2425332403      3601783.4062834415      0.1510000000      15.8652737422      0.2445550035      0.0000000000
0.2483111975      3218724.4833683912      0.1530000000      15.7040137267      0.2504884835      0.0000000000
0.2542264879      2877087.1773950178      0.1550000000      15.5513388158      0.2565679732      0.0000000000
0.2602822774      2572296.1210467634      0.1570000000      15.4067377914      0.2627970769      0.0000000000
0.2664816040      2300303.2615054855      0.1590000000      15.2697442627      0.2691792865      0.0000000000
0.2728273705      2057522.2483886229      0.1610000000      15.1399319163      0.2757179736      0.0000000000
0.2793223360      1840770.7569696063      0.1630000000      15.0169086035      0.2824163810      0.0000000000
0.2859691108      1647223.3929084770      0.1650000000      14.9003138349      0.2892776171      0.0000000000
0.2927701499      1474367.8074207057      0.1670000000      14.7898139896      0.2963046494      0.0000000000
0.2997277449      1319968.2195502620      0.1690000000      14.6850993399      0.3035002959      0.0000000000
0.3068440154      1182035.2143143241      0.1710000000      14.5858824011      0.3108672153      0.0000000000
0.3141209218      1058795.2856194542      0.1730000000      14.4918943071      0.3184079211      0.0000000000
0.3215602324       948668.6246619578      0.1750000000      14.4028839736      0.3261247460      0.0000000000
0.3291635357       850246.2441753483      0.1770000000      14.3186152932      0.3340198548      0.0000000000
0.3369322341       762271.7436866745      0.1790000000      14.2388666265      0.3420952367      0.0000000000
0.3448675395       683624.1752196456      0.1810000000      14.1634288035      0.3503527011      0.0000000000
0.3529704694       613303.4092487236      0.1830000000      14.0921041043      0.3587938720      0.0000000000
0.3612418443       550417.0428233658      0.1850000000      14.0247053412      0.3674201846      0.0000000000
0.3696822866       494168.6141331727      0.1870000000      13.9610548931      0.3762328836      0.0000000000
0.3782922178       443847.3543160805      0.1890000000      13.9009838629      0.3852330194      0.0000000000
0.3870718584       398818.9363986911      0.1910000000      13.8443315561      0.3944214464      0.0000000000
0.3960212267       358517.1874934433      0.1930000000      13.7909447680      0.4037988217      0.0000000000
0.4051401380       322436.8558536699      0.1950000000      13.7406770398      0.4133656017      0.0000000000
0.4144282067       290127.0081698671      0.1970000000      13.6933885699      0.4231220450      0.0000000000
0.4238848458       261185.2418260397      0.1990000000      13.6489455578      0.4330682087      0.0000000000
0.4335092685       235252.4384917945      0.2010000000      13.6072197800      0.4432039501      0.0000000000
0.4433004910       212008.1167543451      0.2030000000      13.5680883816      0.4535289276      0.0000000000
0.4532573336       191166.3090764248      0.2050000000      13.5314335726      0.4640426009      0.0000000000
0.4633784239       172471.8172813922      0.2070000000      13.4971421740      0.4747442323      0.0000000000
0.4736621997       155696.9208776831      0.2090000000      13.4651055935      0.4856328891      0.0000000000
0.4841069136       140638.3975192371      0.2110000000      13.4352194800      0.4967074462      0.0000000000
0.4947106361       127114.8856973021      0.2130000000      13.4073836025      0.5079665882      0.0000000000
0.5054712589       114964.5454967783      0.2150000000      13.3815014822      0.5194088111      0.0000000000
0.5163865033       104042.8906181911      0.2170000000      13.3574805055      0.5310324296      0.0000000000
0.5274539200        94221.0017944004      0.2190000000      13.3352314921      0.5428355755      0.0000000000
0.5386708991        85383.7564402728      0.2210000000      13.3146687762      0.5548162067      0.0000000000
0.5500346729        77428.3796759917      0.2230000000      13.2957098522      0.5669721079      0.0000000000
0.5615423231        70263.1007639783      0.2250000000      13.2782754596      0.5793008975      0.0000000000
0.5731907868        63805.9517305351      0.2270000000      13.2622893652      0.5918000319      0.0000000000
0.5849768623        57983.7177857250      0.2290000000      13.2476782340      0.6044668100      0.0000000000
0.5968972158        52730.9808512299      0.2310000000      13.2343715276      0.6172983791      0.0000000000
0.6089483887        47989.2734589828      0.2330000000      13.2223014314      0.6302917407      0.0000000000
0.6211268038        43706.3393177166      0.2350000000      13.2114028180      0.6434437561      0.0000000000
0.6334287731        39835.4356128674      0.2370000000      13.2016130297      0.6567511530      0.0000000000
0.6458505038        36334.7731283842      0.2390000000      13.1928719228      0.6702105303      0.0000000000
0.6583881062        33166.9480101491      0.2410000000      13.1851215967      0.6838183653      0.0000000000
0.6710376012        30298.4912683883      0.2430000000      13.1783066289      0.6975710204      0.0000000000
0.6837949263        27699.4349058964      0.2450000000      13.1723736553      0.7114647485      0.0000000000
0.6966559445        25342.9345876022      0.2470000000      13.1672715046      0.7254957007      0.0000000000
0.7096164504        23204.9412737368      0.2490000000      13.1629510892      0.7396599322      0.0000000000
0.7226721780        21263.8965245403      0.2510000000      13.1593653029      0.7539534093      0.0000000000
0.7358188073        19500.4679712044      0.2530000000      13.1564689726      0.7683720156      0.0000000000
0.7490519725        17897.3116649627      0.2550000000      13.1542188119      0.7829115597      0.0000000000
0.7623672676        16438.8611049807      0.2570000000      13.1525733523      0.7975677806      0.0000000000
0.7757602549        15111.1364601437      0.2590000000      13.1514927923      0.8123363552      0.0000000000
0.7892264710        13901.5812188174      0.2610000000      13.1509391773      0.8272129055      0.0000000000
0.8027614317        12798.9075124304      0.2630000000      13.1508759870      0.8421930017      0.0000000000
0.8163606425        11792.9658001787      0.2650000000      13.1512684468      0.8572721737      0.0000000000
0.8300196020        10874.6236086056      0.2670000000      13.1520832211      0.8724459140      0.0000000000
0.8437338091        10035.6599768353      0.2690000000      13.1532884682      0.8877096855      0.0000000000
0.8574987689         9268.6704083883      0.2710000000      13.1548537502      0.9030589266      0.0000000000
0.8713099983         8566.9827932470      0.2730000000      13.1567499809      0.9184890579      0.0000000000
0.8851630322         7924.5808632532      0.2750000000      13.1589494903      0.9339954880      0.0000000000
0.8990534283         7336.0375665007      0.2770000000      13.1614257451      0.9495736189      0.0000000000
0.9129767732         6796.4534175755      0.2790000000      13.1641535409      0.9652188525      0.0000000000
0.9269286865         6301.4042465901      0.2810000000      13.1671088385      0.9809265948      0.0000000000
0.9409048263         5846.8911779611      0.2830000000      13.1702687260      0.9966922621      0.0000000000
0.9549008932         5429.2991222882      0.2850000000      13.1736114038      1.0125112859      0.0000000000
0.9689126351         5045.3570958455      0.2870000000      13.1771161285      1.0283791172      0.0000000000
0.9829358558         4692.1038462863      0.2890000000      13.1807631596      1.0442912376      0.0000000000
0.9969664006         4366.8574460342      0.2910000000      13.1845337857      1.0602431421      0.0000000000
1.0110001869         4067.1869521387      0.2930000000      13.1884101661      1.0762303744      0.0000000000
1.0250331902         3790.8873437418      0.2950000000      13.1923754605      1.0922485117      0.0000000000
1.0390614512         3535.9583388769      0.2970000000      13.1964136139      1.1082931723      0.0000000000
1.0530810790         3300.5834710778      0.2990000000      13.2005094863      1.1243600202      0.0000000000
1.0670882541         3083.1124912889      0.3010000000      13.2046487047      1.1404447684      0.0000000000
1.0810792305         2882.0448454123      0.3030000000      13.2088177037      1.1565431829      0.0000000000
1.0950503383         2696.0158055135      0.3050000000      13.2130035832      1.1726510845      0.0000000000
1.1089979855         2523.7833941711      0.3070000000      13.2171942755      1.1887643531      0.0000000000
1.1229186603         2364.2158685907      0.3090000000      13.2213782971      1.2048789302      0.0000000000
1.1368089324         2216.2825132910      0.3110000000      13.2255448981      1.2209908208      0.0000000000
1.1506654513         2079.0430065608      0.3130000000      13.2296839018      1.2370960927      0.0000000000
1.1644849612         1951.6394960727      0.3150000000      13.2337857785      1.2531908940      0.0000000000
1.1782642816         1833.2887249220      0.3170000000      13.2378415592      1.2692714318      0.0000000000
1.1920003219         1723.2751690425      0.3190000000      13.2418428323      1.2853339897      0.0000000000
1.2056900785         1620.9446999630      0.3210000000      13.2457817145      1.3013749253      0.0000000000
1.2193306357         1525.6990828509      0.3230000000      13.2496508391      1.3173906721      0.0000000000
1.2329191662         1436.9907359099      0.3250000000      13.2534433217      1.3333777406      0.0000000000
1.2464529309         1354.3181668491      0.3270000000      13.2571527483      1.3493327196      0.0000000000
1.2599292794         1277.2218623315      0.3290000000      13.2607731513      1.3652522775      0.0000000000
1.2733456498         1205.2805225690      0.3310000000      13.2642989515      1.3811331624      0.0000000000
1.2866995685         1138.1075678970      0.3330000000      13.2677250457      1.3969722035      0.0000000000
1.2999886502         1075.3480950572      0.3350000000      13.2710466438      1.4127663117      0.0000000000
1.3132105972         1016.6761940055      0.3370000000      13.2742594067      1.4285124797      0.0000000000
1.3263631989          961.7921866730      0.3390000000      13.2773592609      1.4442077826      0.0000000000
1.3394443310          910.4206644160      0.3410000000      13.2803425283      1.4598493776      0.0000000000
1.3524519555          862.3080145761      0.3430000000      13.2832058224      1.4754345052      0.0000000000
1.3653841190          817.2208267889      0.3450000000      13.2859460880      1.4909604878      0.0000000000
1.3782389523          774.9440416566      0.3470000000      13.2885605342      1.5064247305      0.0000000000
1.3910146692          735.2793716365      0.3490000000      13.2910466696      1.5218247208      0.0000000000
1.4037095653          698.0440242206      0.3510000000      13.2934022433      1.5371580274      0.0000000000
1.4163220175          663.0691899171      0.3530000000      13.2956252554      1.5524223010      0.0000000000
1.4288504819          630.1990839077      0.3550000000      13.2977139641      1.5676152730      0.0000000000
1.4412934931          599.2897214641      0.3570000000      13.2996668411      1.5827347548      0.0000000000
1.4536496628          570.2080193830      0.3590000000      13.3014825511      1.5977786378      0.0000000000
1.4659176822          542.8308485794      0.3610000000      13.3031600036      1.6127448965      0.0000000000
1.4780963053          517.0443181155      0.3630000000      13.3046982580      1.6276315701      0.0000000000
1.4901843706          492.7428835661      0.3650000000      13.3060965864      1.6424367884      0.0000000000
1.5021807836          469.8288253695      0.3670000000      13.3073544125      1.6571587525      0.0000000000
1.5140845203          448.2114919465      0.3690000000      13.3084713263      1.6717957395      0.0000000000
1.5258946244          427.8068892041      0.3710000000      13.3094470702      1.6863460999      0.0000000000
1.5376102069          408.5369740401      0.3730000000      13.3102815522      1.7008082578      0.0000000000
1.5492304438          390.3293457023      0.3750000000      13.3109747748      1.7151807091      0.0000000000
1.5607545747          373.1167301962      0.3770000000      13.3115269083      1.7294620203      0.0000000000
1.5721819012          356.8365688435      0.3790000000      13.3119382217      1.7436508281      0.0000000000
1.5835117854          341.4307235635      0.3810000000      13.3122091071      1.7577458369      0.0000000000
1.5947436482          326.8450862795      0.3830000000      13.3123400629      1.7717458186      0.0000000000
1.6058769678          313.0292482933      0.3850000000      13.3123316678      1.7856496108      0.0000000000
1.6169112779          299.9363273832      0.3870000000      13.3121846335      1.7994561156      0.0000000000
1.6278461666          287.5225587301      0.3890000000      13.3118997196      1.8131642987      0.0000000000
1.6386812739          275.7471997024      0.3910000000      13.3114777955      1.8267731873      0.0000000000
1.6494162911          264.5721971885      0.3930000000      13.3109197868      1.8402818693      0.0000000000
1.6600509587          253.9620735206      0.3950000000      13.3102267047      1.8536894919      0.0000000000
1.6705850650          243.8836841652      0.3970000000      13.3093996229      1.8669952601      0.0000000000
1.6810184444          234.3060623972      0.3990000000      13.3084396812      1.8801984355      0.0000000000
1.6913509762          225.2002688161      0.4010000000      13.3073480557      1.8932983347      0.0000000000
1.7015825829          216.5392451262      0.4030000000      13.3061259904      1.9062943282      0.0000000000
1.7117132284          208.2976757205      0.4050000000      13.3047747875      1.9191858391      0.0000000000
1.7217429173          200.4518578806      0.4070000000      13.3032957775      1.9319723413      0.0000000000
1.7316716929          192.9796149171      0.4090000000      13.3016903411      1.9446533586      0.0000000000
1.7414996358          185.8601469165      0.4110000000      13.2999598724      1.9572284631      0.0000000000
1.7512268627          179.0739624071      0.4130000000      13.2981058460      1.9696972744      0.0000000000
1.7608535250          172.6028033058      0.4150000000      13.2961297097      1.9820594572      0.0000000000
1.7703798075          166.4295250122      0.4170000000      13.2940329941      1.9943147212      0.0000000000
1.7798059267          160.5380363380      0.4190000000      13.2918172200      2.0064628190      0.0000000000
1.7891321301          154.9132364374      0.4210000000      13.2894839439      2.0185035451      0.0000000000
1.7983586947          149.5409280299      0.4230000000      13.2870347279      2.0304367349      0.0000000000
1.8074859256          144.4077761645      0.4250000000      13.2844711602      2.0422622627      0.0000000000
1.8165141548          139.5012448716      0.4270000000      13.2817948418      2.0539800413      0.0000000000
1.8254437403          134.8095393379      0.4290000000      13.2790073980      2.0655900203      0.0000000000
1.8342750648          130.3215620454      0.4310000000      13.2761104500      2.0770921849      0.0000000000
1.8430085347          126.0268650379      0.4330000000      13.2731056274      2.0884865552      0.0000000000
1.8516445784          121.9156038106      0.4350000000      13.2699945664      2.0997731843      0.0000000000
1.8601836462          117.9785140085      0.4370000000      13.2667789199      2.1109521578      0.0000000000
1.8686262085          114.2068565856      0.4390000000      13.2634603335      2.1220235923      0.0000000000
1.8769727553          110.5923871428      0.4410000000      13.2600404503      2.1329876345      0.0000000000
1.8852237946          107.1273403919      0.4430000000      13.2565209176      2.1438444600      0.0000000000
1.8933798522          103.8043747660      0.4450000000      13.2529033973      2.1545942725      0.0000000000
1.9014414701          100.6165719301      0.4470000000      13.2491895141      2.1652373021      0.0000000000
1.9094092060           97.5573837358      0.4490000000      13.2453809217      2.1757738054      0.0000000000
1.9172836325           94.6206400235      0.4510000000      13.2414792532      2.1862040633      0.0000000000
1.9250653357           91.8004963766      0.4530000000      13.2374861376      2.1965283808      0.0000000000
1.9327549150           89.0914319771      0.4550000000      13.2334032029      2.2067470859      0.0000000000
1.9403529820           86.4882214312      0.4570000000      13.2292320457      2.2168605284      0.0000000000
1.9478601596           83.9859272656      0.4590000000      13.2249742916      2.2268690795      0.0000000000
1.9552770816           81.5798660476      0.4610000000      13.2206315258      2.2367731303      0.0000000000
1.9626043919           79.2656106321      0.4630000000      13.2162053389      2.2465730915      0.0000000000
1.9698427433           77.0389698559      0.4650000000      13.2116972977      2.2562693920      0.0000000000
1.9769927978           74.8959568469      0.4670000000      13.2071089742      2.2658624789      0.0000000000
1.9840552248           72.8328089632      0.4690000000      13.2024419097      2.2753528158      0.0000000000
1.9910307014           70.8459521895      0.4710000000      13.1976976428      2.2847408826      0.0000000000
