# M(M_sol)                 Lambda          n_Bc(fm^-3)         R(km)            m_B(M_sol)        m_Bquar/M_B
0.1515395605     20734436.8296092115      0.1500000000      19.2641004389      0.1517526842      0.0000000000
0.1563675928     17518353.2079890631      0.1520000000      18.6459306151      0.1566493515      0.0000000000
0.1614790335     14790222.4382967204      0.1540000000      18.0799704459      0.1618376324      0.0000000000
0.1668801048     12479737.3004473541      0.1560000000      17.5621272963      0.1673245348      0.0000000000
0.1725765037     10525921.5992255639      0.1580000000      17.0885805664      0.1731165880      0.0000000000
0.1785733455      8875981.6426412631      0.1600000000      16.6557712612      0.1792197838      0.0000000000
0.1848752520      7484312.9510823963      0.1620000000      16.2603995474      0.1856396670      0.0000000000
0.1914862666      6311655.7079966804      0.1640000000      15.8994076472      0.1923812465      0.0000000000
0.1984099460      5324316.8195055649      0.1660000000      15.5699744923      0.1994490888      0.0000000000
0.2056492822      4493489.5888608890      0.1680000000      15.2694970642      0.2068472357      0.0000000000
0.2132067767      3794620.7146458062      0.1700000000      14.9955814064      0.2145792793      0.0000000000
0.2210844315      3206849.3838214469      0.1720000000      14.7460296339      0.2226483501      0.0000000000
0.2292837311      2712504.0480555901      0.1740000000      14.5188232422      0.2310570965      0.0000000000
0.2378056781      2296651.2123534745      0.1760000000      14.3121127760      0.2398077191      0.0000000000
0.2466507756      1946699.0548444726      0.1780000000      14.1242024895      0.2489019493      0.0000000000
0.2558190570      1652052.1224009180      0.1800000000      13.9535413326      0.2583410773      0.0000000000
0.2653100855      1403806.0772165610      0.1820000000      13.7987092536      0.2681259482      0.0000000000
0.2751229384      1194489.9262425175      0.1840000000      13.6584053990      0.2782569428      0.0000000000
0.2852562489      1017839.7224910958      0.1860000000      13.5314403387      0.2887340167      0.0000000000
0.2957081941       868607.9924467728      0.1880000000      13.4167251258      0.2995566846      0.0000000000
0.3064765081       742400.7499330390      0.1900000000      13.3132627352      0.3107240294      0.0000000000
0.3175584857       635539.9583245172      0.1920000000      13.2201397533      0.3222347025      0.0000000000
0.3289509984       544946.8159441232      0.1940000000      13.1365197222      0.3340869359      0.0000000000
0.3406504892       468044.0616537858      0.1960000000      13.0616344978      0.3462785326      0.0000000000
0.3526530224       402672.8889399208      0.1980000000      12.9947818071      0.3588069135      0.0000000000
0.3649542396       347025.4638659366      0.2000000000      12.9353147776      0.3716690679      0.0000000000
0.3775494153       299586.0328663157      0.2020000000      12.8826403413      0.3848616062      0.0000000000
0.3904334556       259083.2359318748      0.2040000000      12.8362135742      0.3983807542      0.0000000000
0.4036009059       224449.8862819474      0.2060000000      12.7955326501      0.4122223563      0.0000000000
0.4170459846       194789.1425318086      0.2080000000      12.7601368330      0.4263819065      0.0000000000
0.4307625709       169347.0634342368      0.2100000000      12.7296006617      0.4408545305      0.0000000000
0.4447442376       147488.7903474824      0.2120000000      12.7035319498      0.4556350161      0.0000000000
0.4589842850       128679.0971513271      0.2140000000      12.6815708141      0.4707178436      0.0000000000
0.4734757084       112466.7128818486      0.2160000000      12.6633825512      0.4860971474      0.0000000000
0.4882112741        98470.0891071212      0.2180000000      12.6486603114      0.5017667921      0.0000000000
0.5031834823        86366.7761165383      0.2200000000      12.6371184820      0.5177203282      0.0000000000
0.5183846385        75883.4379799850      0.2220000000      12.6284950654      0.5339510646      0.0000000000
0.5338068224        66788.4517015265      0.2240000000      12.6225458239      0.5504520303      0.0000000000
0.5494419468        58885.0067067388      0.2260000000      12.6190460503      0.5672160341      0.0000000000
0.5652817444        52005.8249083448      0.2280000000      12.6177865046      0.5842356465      0.0000000000
0.5813178094        46008.4248681221      0.2300000000      12.6185740622      0.6015032401      0.0000000000
0.5975416045        40771.3002866624      0.2320000000      12.6212294029      0.6190109944      0.0000000000
0.6139444812        36190.7168057996      0.2340000000      12.6255861919      0.6367509136      0.0000000000
0.6305177044        32177.9529562616      0.2360000000      12.6314900546      0.6547148510      0.0000000000
0.6472524471        28657.0253737990      0.2380000000      12.6387978681      0.6728944994      0.0000000000
0.6641398421        25562.7722813418      0.2400000000      12.6473765118      0.6912814454      0.0000000000
0.6811709782        22839.2262855817      0.2420000000      12.6571026624      0.7098671617      0.0000000000
0.6983369203        20438.2436657793      0.2440000000      12.6678616222      0.7286430280      0.0000000000
0.7156287269        18318.3635253250      0.2460000000      12.6795468765      0.7476003474      0.0000000000
0.7330374612        16443.8275529507      0.2480000000      12.6920591514      0.7667303573      0.0000000000
0.7505542210        14783.7181405921      0.2500000000      12.7053069595      0.7860242596      0.0000000000
0.7681701360        13311.3092553671      0.2520000000      12.7192048363      0.8054732180      0.0000000000
0.7858763864        12003.4553456284      0.2540000000      12.7336731056      0.8250683764      0.0000000000
0.8036642255        10840.0569603251      0.2560000000      12.7486382747      0.8448008833      0.0000000000
0.8215249817         9803.6628844941      0.2580000000      12.7640316824      0.8646618932      0.0000000000
0.8394500794         8879.0824718625      0.2600000000      12.7797900936      0.8846425902      0.0000000000
0.8574310402         8053.0896165811      0.2620000000      12.7958541347      0.9047341882      0.0000000000
0.8754595085         7314.1329775608      0.2640000000      12.8121695874      0.9249279602      0.0000000000
0.8935272423         6652.1337333076      0.2660000000      12.8286851780      0.9452152283      0.0000000000
0.9116261377         6058.2695601023      0.2680000000      12.8453538324      0.9655873907      0.0000000000
0.9297482402         5524.8026157084      0.2700000000      12.8621325419      0.9860359364      0.0000000000
0.9478857333         5044.9586481231      0.2720000000      12.8789803710      1.0065524326      0.0000000000
0.9660309668         4612.7791221033      0.2740000000      12.8958602372      1.0271285569      0.0000000000
0.9841764520         4223.0248332494      0.2760000000      12.9127375690      1.0477560946      0.0000000000
1.0023148716         3871.0816910832      0.2780000000      12.9295805545      1.0684269500      0.0000000000
1.0204390834         3552.8811753587      0.2800000000      12.9463597346      1.0891331526      0.0000000000
1.0385421289         3264.8279192217      0.2820000000      12.9630482614      1.1098668688      0.0000000000
1.0566172281         3003.7492182361      0.2840000000      12.9796207959      1.1306203969      0.0000000000
1.0746577973         2766.8298619568      0.2860000000      12.9960547898      1.1513861903      0.0000000000
1.0926574405         2551.5782979213      0.2880000000      13.0123291856      1.1721568489      0.0000000000
1.1106099563         2355.7827059322      0.2900000000      13.0284247721      1.1929251295      0.0000000000
1.1285093407         2177.4768959797      0.2920000000      13.0443240953      1.2136839510      0.0000000000
1.1463497826         2014.9148293906      0.2940000000      13.0600108166      1.2344263919      0.0000000000
1.1641256775         1866.5370626924      0.2960000000      13.0754708426      1.2551457076      0.0000000000
1.1818316124         1730.9566302972      0.2980000000      13.0906906745      1.2758353163      0.0000000000
1.1994623794         1606.9330949688      0.3000000000      13.1056586959      1.2964888162      0.0000000000
1.2170129629         1493.3600054750      0.3020000000      13.1203638425      1.3170999742      0.0000000000
1.2344785532         1389.2446550395      0.3040000000      13.1347969131      1.3376627432      0.0000000000
1.2518545307         1293.7007653616      0.3060000000      13.1489489976      1.3581712470      0.0000000000
1.2691364760         1205.9306054750      0.3080000000      13.1628128587      1.3786197942      0.0000000000
1.2863201602         1125.2207678978      0.3100000000      13.1763815814      1.3990028694      0.0000000000
1.3034015494         1050.9279532888      0.3120000000      13.1896495046      1.4193151415      0.0000000000
1.3203767966          982.4750443436      0.3140000000      13.2026115059      1.4395514561      0.0000000000
1.3372422444          919.3408794865      0.3160000000      13.2152634526      1.4597068417      0.0000000000
1.3539944167          861.0567276646      0.3180000000      13.2276016000      1.4797765022      0.0000000000
1.3706300212          807.1990154349      0.3200000000      13.2396231271      1.4997558225      0.0000000000
1.3871459424          757.3852028305      0.3220000000      13.2513256777      1.5196403627      0.0000000000
1.4035392394          711.2694062996      0.3240000000      13.2627074308      1.5394258576      0.0000000000
1.4198071434          668.5382953330      0.3260000000      13.2737671891      1.5591082166      0.0000000000
1.4359470525          628.9084522807      0.3280000000      13.2845041553      1.5786835197      0.0000000000
1.4519565289          592.1223853546      0.3300000000      13.2949180107      1.5981480164      0.0000000000
1.4678332948          557.9465053735      0.3320000000      13.3050088419      1.6174981231      0.0000000000
1.4835752288          526.1686402709      0.3340000000      13.3147771590      1.6367304211      0.0000000000
1.4991803612          496.5957247568      0.3360000000      13.3242237539      1.6558416533      0.0000000000
1.5146468706          469.0520294822      0.3380000000      13.3333498288      1.6748287216      0.0000000000
1.5299730797          443.3774343418      0.3400000000      13.3421568588      1.6936886847      0.0000000000
1.5451574507          419.4258923564      0.3420000000      13.3506465684      1.7124187544      0.0000000000
1.5601985821          397.0641393498      0.3440000000      13.3588209986      1.7310162927      0.0000000000
1.5750952035          376.1704105053      0.3460000000      13.3666823961      1.7494788090      0.0000000000
1.5898461722          356.6333685623      0.3480000000      13.3742332105      1.7678039563      0.0000000000
1.6044504686          338.3511315458      0.3500000000      13.3814761225      1.7859895287      0.0000000000
1.6189071925          321.2303818228      0.3520000000      13.3884139752      1.8040334575      0.0000000000
1.6332155588          305.1855913378      0.3540000000      13.3950497734      1.8219338080      0.0000000000
1.6473748931          290.1382931662      0.3560000000      13.4013866695      1.8396887760      0.0000000000
1.6613846285          276.0164255108      0.3580000000      13.4074279919      1.8572966851      0.0000000000
1.6752443010          262.7538055174      0.3600000000      13.4131771189      1.8747559822      0.0000000000
1.6889535456          250.2895660033      0.3620000000      13.4186375918      1.8920652349      0.0000000000
1.7025120929          238.5676855163      0.3640000000      13.4238130244      1.9092231278      0.0000000000
1.7159197650          227.5365243915      0.3660000000      13.4287071777      1.9262284594      0.0000000000
1.7291764714          217.1485783955      0.3680000000      13.4333237730      1.9430801378      0.0000000000
1.7422822055          207.3600106030      0.3700000000      13.4376666193      1.9597771775      0.0000000000
1.7552370426          198.1302767715      0.3720000000      13.4417397207      1.9763186985      0.0000000000
1.7680411340          189.4219756765      0.3740000000      13.4455470034      1.9927039197      0.0000000000
1.7806947039          181.2006066789      0.3760000000      13.4490923727      2.0089321556      0.0000000000
1.7931980482          173.4341690025      0.3780000000      13.4523798997      2.0250028166      0.0000000000
1.8055515292          166.0930235644      0.3800000000      13.4554136767      2.0409154028      0.0000000000
1.8177555728          159.1497925568      0.3820000000      13.4581977217      2.0566695008      0.0000000000
1.8298106655          152.5790614949      0.3840000000      13.4607360954      2.0722647823      0.0000000000
1.8417173526          146.3572004254      0.3860000000      13.4630329896      2.0877010005      0.0000000000
1.8534762317          140.4624260626      0.3880000000      13.4650923259      2.1029779843      0.0000000000
1.8650879545          134.8743637587      0.3900000000      13.4669182495      2.1180956404      0.0000000000
1.8765532212          129.5741136323      0.3920000000      13.4685149097      2.1330539471      0.0000000000
1.8878727778          124.5441586260      0.3940000000      13.4698862680      2.1478529510      0.0000000000
1.8990474147          119.7681224499      0.3960000000      13.4710364283      2.1624927665      0.0000000000
1.9100779631          115.2308169070      0.3980000000      13.4719693708      2.1769735712      0.0000000000
1.9209652940          110.9180327578      0.4000000000      13.4726891777      2.1912956050      0.0000000000
1.9317103133          106.8165795034      0.4020000000      13.4731997314      2.2054591647      0.0000000000
1.9423139626          102.9141012534      0.4040000000      13.4735050797      2.2194646050      0.0000000000
1.9527772146           99.1991213274      0.4060000000      13.4736090835      2.2333123331      0.0000000000
1.9631010720           95.6608882480      0.4080000000      13.4735156056      2.2470028076      0.0000000000
1.9732865659           92.2893458001      0.4100000000      13.4732285768      2.2605365366      0.0000000000
1.9833347526           89.0751120949      0.4120000000      13.4727517467      2.2739140742      0.0000000000
1.9932467129           86.0093985237      0.4140000000      13.4720889520      2.2871360193      0.0000000000
2.0030235489           83.0840010217      0.4160000000      13.4712438648      2.3002030123      0.0000000000
2.0126663841           80.2912164155      0.4180000000      13.4702202082      2.3131157346      0.0000000000
2.0221763605           77.6238049017      0.4200000000      13.4690216823      2.3258749057      0.0000000000
2.0315546362           75.0750457809      0.4220000000      13.4676517819      2.3384812800      0.0000000000
2.0408023858           72.6385868216      0.4240000000      13.4661141053      2.3509356471      0.0000000000
2.0499207987           70.3084214100      0.4260000000      13.4644123098      2.3632388302      0.0000000000
2.0589110750           68.0790209605      0.4280000000      13.4625496873      2.3753916801      0.0000000000
2.0677744274           65.9451074052      0.4300000000      13.4605297293      2.3873950788      0.0000000000
2.0765120784           63.9017420322      0.4320000000      13.4583558444      2.3992499347      0.0000000000
2.0851252588           61.9442980348      0.4340000000      13.4560312933      2.4109571814      0.0000000000
2.0936152078           60.0683689127      0.4360000000      13.4535594865      2.4225177777      0.0000000000
2.1019831694           58.2698973763      0.4380000000      13.4509434663      2.4339327023      0.0000000000
2.1102303946           56.5449780241      0.4400000000      13.4481865411      2.4452029578      0.0000000000
2.1183581381           54.8899628961      0.4420000000      13.4452918436      2.4563295647      0.0000000000
2.1263676568           53.3014439901      0.4440000000      13.4422623346      2.4673135611      0.0000000000
2.1342602121           51.7761269990      0.4460000000      13.4391012280      2.4781560043      0.0000000000
2.1420370650           50.3109915417      0.4480000000      13.4358113891      2.4888579649      0.0000000000
2.1496994784           48.9031194473      0.4500000000      13.4323958665      2.4994205299      0.0000000000
2.1572487137           47.5498104783      0.4520000000      13.4288574190      2.5098447971      0.0000000000
2.1646860324           46.2484765360      0.4540000000      13.4251989457      2.5201318784      0.0000000000
2.1720126939           44.9966876456      0.4560000000      13.4214232165      2.5302828960      0.0000000000
2.1792299552           43.7921331623      0.4580000000      13.4175329937      2.5402989818      0.0000000000
2.1863390709           42.6326284994      0.4600000000      13.4135310175      2.5501812777      0.0000000000
2.1933412910           41.5161284049      0.4620000000      13.4094198683      2.5599309324      0.0000000000
2.2002378622           40.4406552040      0.4640000000      13.4052022499      2.5695491028      0.0000000000
2.2070300255           39.4043913582      0.4660000000      13.4008805646      2.5790369503      0.0000000000
2.2137190175           38.4055678074      0.4680000000      13.3964574269      2.5883956436      0.0000000000
2.2203060689           37.4425215639      0.4700000000      13.3919353066      2.5976263552      0.0000000000
2.2267924040           36.5136791321      0.4720000000      13.3873166321      2.6067302613      0.0000000000
2.2331792399           35.6175642900      0.4740000000      13.3826036431      2.6157085401      0.0000000000
2.2394677883           34.7527263681      0.4760000000      13.3777988805      2.6245623747      0.0000000000
2.2456592521           33.9178457980      0.4780000000      13.3729044959      2.6332929475      0.0000000000
2.2517548265           33.1116338719      0.4800000000      13.3679227717      2.6419014424      0.0000000000
2.2577556996           32.3328759939      0.4820000000      13.3628559210      2.6503890446      0.0000000000
2.2636630501           31.5804260618      0.4840000000      13.3577060516      2.6587569380      0.0000000000
2.2694780489           30.8531768935      0.4860000000      13.3524753488      2.6670063065      0.0000000000
2.2752018572           30.1500842896      0.4880000000      13.3471658906      2.6751383322      0.0000000000
2.2808356279           29.4701551542      0.4900000000      13.3417797098      2.6831541958      0.0000000000
2.2863805037           28.8124537272      0.4920000000      13.3363187518      2.6910550750      0.0000000000
2.2918376181           28.1760722238      0.4940000000      13.3307850329      2.6988421453      0.0000000000
2.2972080951           27.5601522608      0.4960000000      13.3251804579      2.7065165791      0.0000000000
2.3024930483           26.9638831212      0.4980000000      13.3195069041      2.7140795445      0.0000000000
2.3076935817           26.3864772876      0.5000000000      13.3137662493      2.7215322066      0.0000000000
2.3128107885           25.8272000215      0.5020000000      13.3079602685      2.7288757249      0.0000000000
2.3178457521           25.2853421191      0.5040000000      13.3020907469      2.7361112552      0.0000000000
2.3227995452           24.7602268141      0.5060000000      13.2961594257      2.7432399476      0.0000000000
2.3276732303           24.2512072601      0.5080000000      13.2901680281      2.7502629473      0.0000000000
