# M(M_sol)                 Lambda          n_Bc(fm^-3)         R(km)            m_B(M_sol)        m_Bquar/M_B
0.1529764185     24506610.8934012316      0.1330000000      20.2817234781      0.1531927576      0.0000000000
0.1570245912     21312504.0144583546      0.1350000000      19.7331585381      0.1572966374      0.0000000000
0.1611850480     18566964.7653018199      0.1370000000      19.2312380375      0.1615170184      0.0000000000
0.1654576413     16201553.7225408703      0.1390000000      18.7709374610      0.1658539609      0.0000000000
0.1698423127     14159437.8238629326      0.1410000000      18.3479103353      0.1703076200      0.0000000000
0.1743388662     12393109.8029836398      0.1430000000      17.9583683306      0.1748780164      0.0000000000
0.1789473187     10862684.4050893858      0.1450000000      17.5990129229      0.1795653913      0.0000000000
0.1836673466      9534482.6982001793      0.1470000000      17.2669313571      0.1843696450      0.0000000000
0.1884989572      8380020.9150774321      0.1490000000      16.9595765935      0.1892910187      0.0000000000
0.1934419625      7375099.9638162330      0.1510000000      16.6746900237      0.1943295595      0.0000000000
0.1984961659      6499108.9642643817      0.1530000000      16.4102661396      0.1994853104      0.0000000000
0.2036613614      5734461.0698915375      0.1550000000      16.1645220879      0.2047583093      0.0000000000
0.2089373097      5066112.3815230643      0.1570000000      15.9358653277      0.2101485643      0.0000000000
0.2143238003      4481178.5626231125      0.1590000000      15.7228748863      0.2156561174      0.0000000000
0.2198205367      3968596.5104087754      0.1610000000      15.5242713311      0.2212809266      0.0000000000
0.2254273608      3518864.5038053212      0.1630000000      15.3389155611      0.2270230958      0.0000000000
0.2311437647      3123781.3104393813      0.1650000000      15.1657579312      0.2328823752      0.0000000000
0.2369694945      2776292.9335723496      0.1670000000      15.0038691854      0.2388587785      0.0000000000
0.2429041458      2470300.9071347783      0.1690000000      14.8523991562      0.2449521691      0.0000000000
0.2489473309      2200535.3488591691      0.1710000000      14.7105800718      0.2511624310      0.0000000000
0.2550985595      1962431.0732857932      0.1730000000      14.5777087008      0.2574893463      0.0000000000
0.2613573770      1752033.3048234815      0.1750000000      14.4531488400      0.2639327373      0.0000000000
0.2677232485      1565908.5268760172      0.1770000000      14.3363170249      0.2704923466      0.0000000000
0.2741955976      1401072.6724833774      0.1790000000      14.2266789765      0.2771678771      0.0000000000
0.2807738301      1254930.8559049468      0.1810000000      14.1237469051      0.2839590159      0.0000000000
0.2874572843      1125221.5815859761      0.1830000000      14.0270705888      0.2908653833      0.0000000000
0.2942452864      1009974.3452579166      0.1850000000      13.9362389726      0.2978865890      0.0000000000
0.3011371217       907468.5481454792      0.1870000000      13.8508733329      0.3050222028      0.0000000000
0.3081319651       816198.9084775440      0.1890000000      13.7706193928      0.3122716824      0.0000000000
0.3152290504       734850.7155953118      0.1910000000      13.6951575001      0.3196345477      0.0000000000
0.3224274690       662270.5264087535      0.1930000000      13.6241848878      0.3271101724      0.0000000000
0.3297263627       597448.7976956079      0.1950000000      13.5574281619      0.3346979837      0.0000000000
0.3371247531       539497.9436472013      0.1970000000      13.4946282506      0.3423972851      0.0000000000
0.3446216341       487638.3042347501      0.1990000000      13.4355456273      0.3502073513      0.0000000000
0.3522159790       441184.6873249207      0.2010000000      13.3799596653      0.3581274364      0.0000000000
0.3599066784       399533.1160798762      0.2030000000      13.3276620451      0.3661567080      0.0000000000
0.3676926044       362151.5865733286      0.2050000000      13.2784603826      0.3742943143      0.0000000000
0.3755726218       328571.2888398025      0.2070000000      13.2321784548      0.3825393949      0.0000000000
0.3835454635       298376.9831403652      0.2090000000      13.1886446836      0.3908909514      0.0000000000
0.3916098714       271202.3527312053      0.2110000000      13.1477027051      0.3993479929      0.0000000000
0.3997645745       246723.4594395710      0.2130000000      13.1092085713      0.4079095140      0.0000000000
0.4080081797       224652.6206805650      0.2150000000      13.0730212092      0.4165743790      0.0000000000
0.4163393002       204735.2561728544      0.2170000000      13.0390119719      0.4253414571      0.0000000000
0.4247565606       186745.8313519021      0.2190000000      13.0070642021      0.4342096263      0.0000000000
0.4332584248       170483.0982396223      0.2210000000      12.9770589924      0.4431775937      0.0000000000
0.4418434110       155768.8328406986      0.2230000000      12.9488916796      0.4522441198      0.0000000000
0.4505099660       142444.1974585587      0.2250000000      12.9224611416      0.4614078865      0.0000000000
0.4592565343       130367.9367424083      0.2270000000      12.8976749054      0.4706675693      0.0000000000
0.4680814262       119413.5654453976      0.2290000000      12.8744380302      0.4800216986      0.0000000000
0.4769830705       109469.0675665958      0.2310000000      12.8526728603      0.4894689244      0.0000000000
0.4859597203       100433.6577319914      0.2330000000      12.8322949713      0.4990077071      0.0000000000
0.4950097124        92217.8404772614      0.2350000000      12.8132337537      0.5086365899      0.0000000000
0.5041312382        84741.0225876793      0.2370000000      12.7954132239      0.5183539569      0.0000000000
0.5133225777        77931.5605172928      0.2390000000      12.7787709035      0.5281582802      0.0000000000
0.5225819151        71724.9674584799      0.2410000000      12.7632422380      0.5380479242      0.0000000000
0.5319074136        66063.4495027770      0.2430000000      12.7487665119      0.5480212248      0.0000000000
0.5412971853        60895.0512874254      0.2450000000      12.7352838772      0.5580764565      0.0000000000
0.5507494425        56173.4864527112      0.2470000000      12.7227476060      0.5682119935      0.0000000000
0.5602622063        51856.6425176974      0.2490000000      12.7110997259      0.5784259997      0.0000000000
0.5698336194        47907.0327094737      0.2510000000      12.7002965547      0.5887167604      0.0000000000
0.5794617114        44290.6493335005      0.2530000000      12.6902888754      0.5990824326      0.0000000000
0.5891445479        40976.9916770055      0.2550000000      12.6810342841      0.6095212041      0.0000000000
0.5988801704        37938.5261793992      0.2570000000      12.6724916548      0.6200312280      0.0000000000
0.6086665957        35150.3866673026      0.2590000000      12.6646210546      0.6306106230      0.0000000000
0.6185018119        32590.0852662207      0.2610000000      12.6573829209      0.6412574679      0.0000000000
0.6283838686        30237.4290693472      0.2630000000      12.6507455835      0.6519698987      0.0000000000
0.6383107432        28074.0425743160      0.2650000000      12.6446737147      0.6627459648      0.0000000000
0.6482804198        26083.3189021667      0.2670000000      12.6391347419      0.6735837133      0.0000000000
0.6582908792        24250.2183983261      0.2690000000      12.6340977570      0.6844811782      0.0000000000
0.6683400892        22561.1013336819      0.2710000000      12.6295325018      0.6954363696      0.0000000000
0.6784260685        21003.6652985326      0.2730000000      12.6254147160      0.7064473432      0.0000000000
0.6885467548        19566.6405998793      0.2750000000      12.6217144407      0.7175120566      0.0000000000
0.6987001287        18239.8460618548      0.2770000000      12.6184065817      0.7286285040      0.0000000000
0.7088842146        17014.0643144905      0.2790000000      12.6154702854      0.7397947166      0.0000000000
0.7190969501        15880.8373831531      0.2810000000      12.6128795117      0.7510086211      0.0000000000
0.7293363364        14832.5087504497      0.2830000000      12.6106128038      0.7622682029      0.0000000000
0.7396003967        13862.1252028759      0.2850000000      12.6086515732      0.7735714605      0.0000000000
0.7498871129        12963.3046940216      0.2870000000      12.6069737872      0.7849163369      0.0000000000
0.7601944988        12130.2495758974      0.2890000000      12.6055604004      0.7963007992      0.0000000000
0.7705206130        11357.6946217145      0.2910000000      12.6043962089      0.8077228526      0.0000000000
0.7808634633        10640.7857461530      0.2930000000      12.6034612561      0.8191804358      0.0000000000
0.7912211036         9975.1119690527      0.2950000000      12.6027393138      0.8306715273      0.0000000000
0.8015916237         9356.6563296364      0.2970000000      12.6022168653      0.8421941340      0.0000000000
0.8119730752         8781.7075554114      0.2990000000      12.6018762205      0.8537462096      0.0000000000
0.8223635874         8246.9088088505      0.3010000000      12.6017060245      0.8653257830      0.0000000000
0.8327612513         7749.1501282537      0.3030000000      12.6016903401      0.8769308294      0.0000000000
0.8431642288         7285.6133405490      0.3050000000      12.6018187928      0.8885593916      0.0000000000
0.8535706510         6853.6846688819      0.3070000000      12.6020768144      0.9002094674      0.0000000000
0.8639786943         6450.9808094338      0.3090000000      12.6024528069      0.9118790940      0.0000000000
0.8743865777         6075.3234378389      0.3110000000      12.6029376875      0.9235663448      0.0000000000
0.8847924960         5724.6893800283      0.3130000000      12.6035185010      0.9352692557      0.0000000000
0.8951947155         5397.2412938178      0.3150000000      12.6041874494      0.9469859315      0.0000000000
0.9055914859         5091.2715464288      0.3170000000      12.6049332751      0.9587144477      0.0000000000
0.9159810986         4805.2182715546      0.3190000000      12.6057472987      0.9704529159      0.0000000000
0.9263618726         4537.6390637302      0.3210000000      12.6066203157      0.9821994680      0.0000000000
0.9367321619         4287.2135819571      0.3230000000      12.6075456119      0.9939522647      0.0000000000
0.9470903101         4052.7100116910      0.3250000000      12.6085128965      1.0057094447      0.0000000000
0.9574347396         3833.0104175706      0.3270000000      12.6095174166      1.0174692251      0.0000000000
0.9677638474         3627.0653926837      0.3290000000      12.6105494703      1.0292297845      0.0000000000
0.9780760925         3433.9176853021      0.3310000000      12.6116032003      1.0409893608      0.0000000000
0.9883699530         3252.6797783041      0.3330000000      12.6126721341      1.0527462043      0.0000000000
0.9986439496         3082.5354814231      0.3350000000      12.6137515686      1.0644986034      0.0000000000
1.0088966077         2922.7217569437      0.3370000000      12.6148341217      1.0762448424      0.0000000000
1.0191264840         2772.5377874087      0.3390000000      12.6159144548      1.0879832317      0.0000000000
1.0293321754         2631.3333895795      0.3410000000      12.6169870373      1.0997121177      0.0000000000
1.0395123258         2498.5117679988      0.3430000000      12.6180489922      1.1114298917      0.0000000000
1.0496655717         2373.5112735471      0.3450000000      12.6190937865      1.1231349272      0.0000000000
1.0597905954         2255.8148388437      0.3470000000      12.6201167693      1.1348256414      0.0000000000
1.0698861178         2144.9446969086      0.3490000000      12.6211144191      1.1465004869      0.0000000000
1.0799508912         2040.4575046356      0.3510000000      12.6220835505      1.1581579436      0.0000000000
1.0899836678         1941.9358218896      0.3530000000      12.6230179631      1.1697964834      0.0000000000
1.0999832790         1849.0011042347      0.3550000000      12.6239168898      1.1814146606      0.0000000000
1.1099485549         1761.2955502092      0.3570000000      12.6247763643      1.1930110203      0.0000000000
1.1198783578         1678.4869985198      0.3590000000      12.6255927955      1.2045841370      0.0000000000
1.1297715771         1600.2658722851      0.3610000000      12.6263624125      1.2161326086      0.0000000000
1.1396271566         1526.3479720594      0.3630000000      12.6270842723      1.2276550888      0.0000000000
1.1494440425         1456.4643109353      0.3650000000      12.6277545668      1.2391502268      0.0000000000
1.1592212210         1390.3658117811      0.3670000000      12.6283706711      1.2506167109      0.0000000000
1.1689577286         1327.8232837218      0.3690000000      12.6289324885      1.2620532812      0.0000000000
1.1786525781         1268.6155573611      0.3710000000      12.6294340086      1.2734586439      0.0000000000
1.1883048826         1212.5458930731      0.3730000000      12.6298773307      1.2848316146      0.0000000000
1.1979137273         1159.4231842867      0.3750000000      12.6302582649      1.2961709712      0.0000000000
1.2074782511         1109.0720792558      0.3770000000      12.6305754593      1.3074755478      0.0000000000
1.2169976269         1061.3294452787      0.3790000000      12.6308283484      1.3187442123      0.0000000000
1.2264710340         1016.0402005560      0.3810000000      12.6310138675      1.3299758347      0.0000000000
1.2358977052          973.0622297410      0.3830000000      12.6311319883      1.3411693419      0.0000000000
1.2452768886          932.2611770925      0.3850000000      12.6311813156      1.3523236740      0.0000000000
1.2546078535          893.5106539062      0.3870000000      12.6311597631      1.3634377906      0.0000000000
1.2638899132          856.6940071549      0.3890000000      12.6310672557      1.3745106984      0.0000000000
1.2731223994          821.7011933497      0.3910000000      12.6309028600      1.3855414209      0.0000000000
1.2823046682          788.4288008866      0.3930000000      12.6306653709      1.3965290062      0.0000000000
1.2914361078          756.7804871761      0.3950000000      12.6303543801      1.4074725360      0.0000000000
1.3005161284          726.6655187427      0.3970000000      12.6299690491      1.4183711139      0.0000000000
1.3095441675          697.9989236235      0.3990000000      12.6295087949      1.4292238717      0.0000000000
1.3185196861          670.7008028214      0.4010000000      12.6289728749      1.4400299657      0.0000000000
1.3274421839          644.6972880673      0.4030000000      12.6283623443      1.4507885946      0.0000000000
1.3363111491          619.9161016282      0.4050000000      12.6276738024      1.4614989398      0.0000000000
1.3451261461          596.2934029959      0.4070000000      12.6269104052      1.4721602705      0.0000000000
1.3538867190          573.7658248443      0.4090000000      12.6260698699      1.4827718288      0.0000000000
1.3625924559          552.2753263636      0.4110000000      12.6251525200      1.4933329061      0.0000000000
1.3712429605          531.7667564540      0.4130000000      12.6241578036      1.5038428102      0.0000000000
1.3798378767          512.1894642010      0.4150000000      12.6230874940      1.5143008943      0.0000000000
1.3883768335          493.4932593753      0.4170000000      12.6219386273      1.5247064916      0.0000000000
1.3968595259          475.6337889471      0.4190000000      12.6207140091      1.5350590121      0.0000000000
1.4052856380          458.5672121537      0.4210000000      12.6194123065      1.5453578508      0.0000000000
1.4136548881          442.2530239714      0.4230000000      12.6180339477      1.5556024421      0.0000000000
1.4219670118          426.6528803118      0.4250000000      12.6165789937      1.5657922397      0.0000000000
1.4302217668          411.7307183014      0.4270000000      12.6150477952      1.5759267218      0.0000000000
1.4384189351          397.4527504370      0.4290000000      12.6134413578      1.5860053951      0.0000000000
1.4465582990          383.7861137045      0.4310000000      12.6117582345      1.5960277656      0.0000000000
1.4546396852          370.7011080212      0.4330000000      12.6100003616      1.6059933911      0.0000000000
1.4626629247          358.1689569977      0.4350000000      12.6081678721      1.6159018344      0.0000000000
1.4706278640          346.1623578347      0.4370000000      12.6062605783      1.6257526759      0.0000000000
1.4785343705          334.6556724643      0.4390000000      12.6042787510      1.6355455209      0.0000000000
1.4863823340          323.6249222212      0.4410000000      12.6022234313      1.6452800014      0.0000000000
1.4941716548          313.0471283470      0.4430000000      12.6000947787      1.6549557613      0.0000000000
1.5019022578          302.9009378319      0.4450000000      12.5978941895      1.6645724746      0.0000000000
1.5095740697          293.1655019189      0.4470000000      12.5956210714      1.6741298172      0.0000000000
1.5171870429          283.8215502199      0.4490000000      12.5932762904      1.6836274963      0.0000000000
1.5247411456          274.8508477164      0.4510000000      12.5908608056      1.6930652382      0.0000000000
1.5322363544          266.2358709206      0.4530000000      12.5883747426      1.7024427801      0.0000000000
1.5396726643          257.9601745421      0.4550000000      12.5858187869      1.7117598817      0.0000000000
1.5470500846          250.0081837642      0.4570000000      12.5831936768      1.7210163203      0.0000000000
1.5543686393          242.3651769851      0.4590000000      12.5805003648      1.7302118924      0.0000000000
1.5616283566          235.0168569734      0.4610000000      12.5777384956      1.7393463996      0.0000000000
1.5688292933          227.9502503649      0.4630000000      12.5749100490      1.7484196796      0.0000000000
1.5759715049          221.1525170096      0.4650000000      12.5720149304      1.7574315691      0.0000000000
1.5830550598          214.6115414600      0.4670000000      12.5690532977      1.7663819218      0.0000000000
1.5900800503          208.3162107734      0.4690000000      12.5660269935      1.7752706213      0.0000000000
1.5970465680          202.2555678641      0.4710000000      12.5629361675      1.7840975518      0.0000000000
1.6039547231          196.4194536842      0.4730000000      12.5597820575      1.7928626214      0.0000000000
1.6108046286          190.7979587029      0.4750000000      12.5565647681      1.8015657427      0.0000000000
1.6175964101          185.3817345722      0.4770000000      12.5532847196      1.8102068452      0.0000000000
1.6243302114          180.1621504260      0.4790000000      12.5499435926      1.8187858823      0.0000000000
1.6310061733          175.1305968450      0.4810000000      12.5465411361      1.8273028049      0.0000000000
1.6376244574          170.2792420867      0.4830000000      12.5430788596      1.8357575913      0.0000000000
1.6441852301          165.6004919030      0.4850000000      12.5395576369      1.8441502272      0.0000000000
1.6506886591          161.0869114621      0.4870000000      12.5359771702      1.8524807013      0.0000000000
1.6571349332          156.7317770267      0.4890000000      12.5323391555      1.8607490304      0.0000000000
1.6635242432          152.5285118470      0.4910000000      12.5286443345      1.8689552354      0.0000000000
