# M(M_sol)                 Lambda          n_Bc(fm^-3)         R(km)            m_B(M_sol)        m_Bquar/M_B
0.1521805372     48199471.8555145040      0.0870000000      23.9688251395      0.1524425775      0.0000000000
0.1594513553     38683033.2546794415      0.0890000000      22.8407433539      0.1598184693      0.0000000000
0.1668796485     31349191.1283077709      0.0910000000      21.8982661686      0.1673616136      0.0000000000
0.1744540630     25618360.4109971337      0.0930000000      21.1016062069      0.1750608585      0.0000000000
0.1821644343     21089303.1310241111      0.0950000000      20.4213741034      0.1829062296      0.0000000000
0.1900015928     17475715.0764051713      0.0970000000      19.8354189855      0.1908887362      0.0000000000
0.1979572170     14568522.2797532808      0.0990000000      19.3267469218      0.1990002245      0.0000000000
0.2060237299     12212299.7406722400      0.1010000000      18.8821163601      0.2072332750      0.0000000000
0.2141942030     10289837.8552303724      0.1030000000      18.4910686949      0.2155811074      0.0000000000
0.2224622956      8711660.4669410083      0.1050000000      18.1452397388      0.2240375203      0.0000000000
0.2308221923      7408758.0899888873      0.1070000000      17.8378670189      0.2325968302      0.0000000000
0.2392685567      6327436.1016020747      0.1090000000      17.5634288353      0.2412538257      0.0000000000
0.2477964898      5425567.0447157472      0.1110000000      17.3173753452      0.2500037265      0.0000000000
0.2564014967      4669868.1462096758      0.1130000000      17.0959279295      0.2588421520      0.0000000000
0.2649842654      4040237.2544978694      0.1150000000      16.8979982563      0.2676671604      0.0000000000
0.2734631021      3516825.8145047966      0.1170000000      16.7218084396      0.2763945256      0.0000000000
0.2819099515      3074985.9127298505      0.1190000000      16.5628202617      0.2850980644      0.0000000000
0.2903425214      2699154.1006092699      0.1210000000      16.4184426353      0.2937959358      0.0000000000
0.2987694032      2377580.9160063243      0.1230000000      16.2867051466      0.3024969594      0.0000000000
0.3071958378      2101046.8477698923      0.1250000000      16.1660168374      0.3112065293      0.0000000000
0.3156254688      1862180.1914862043      0.1270000000      16.0550591951      0.3199284107      0.0000000000
0.3240610669      1655013.8193583915      0.1290000000      15.9527218018      0.3286654815      0.0000000000
0.3325048879      1474671.8740828040      0.1310000000      15.8580594837      0.3374200997      0.0000000000
0.3409588622      1317140.4022436698      0.1330000000      15.7702609025      0.3461942964      0.0000000000
0.3494247112      1179092.8007782386      0.1350000000      15.6886249300      0.3549898957      0.0000000000
0.3579040097      1057756.3258703991      0.1370000000      15.6125417929      0.3638085780      0.0000000000
0.3663982350       950807.6007118576      0.1390000000      15.5414787917      0.3726519306      0.0000000000
0.3749087894       856290.5215444915      0.1410000000      15.4749680848      0.3815214704      0.0000000000
0.3834370183       772551.0095857168      0.1430000000      15.4125973536      0.3904186624      0.0000000000
0.3919842262       698184.5286546142      0.1450000000      15.3540019315      0.3993449361      0.0000000000
0.4005516749       631993.9235630295      0.1470000000      15.2988576469      0.4083016835      0.0000000000
0.4091405964       572954.9966891445      0.1490000000      15.2468759762      0.4172902723      0.0000000000
0.4177521905       520188.5983510974      0.1510000000      15.1977989347      0.4263120432      0.0000000000
0.4263876261       472937.7230024337      0.1530000000      15.1513955170      0.4353683113      0.0000000000
0.4350480423       430548.3925556729      0.1550000000      15.1074579863      0.4444603665      0.0000000000
0.4437345474       392454.0756753159      0.1570000000      15.0657993362      0.4535894733      0.0000000000
0.4524482171       358162.6317749671      0.1590000000      15.0262506604      0.4627568679      0.0000000000
0.4611900916       327245.3926611679      0.1610000000      14.9886589727      0.4719637553      0.0000000000
0.4699611874       299327.9757893301      0.1630000000      14.9528856948      0.4812113221      0.0000000000
0.4787624554       274082.8038941072      0.1650000000      14.9188047660      0.4905006911      0.0000000000
0.4875948349       251222.3480413452      0.1670000000      14.8863014539      0.4998329788      0.0000000000
0.4964592141       230493.7856198232      0.1690000000      14.8552708060      0.5092092537      0.0000000000
0.5053564396       211674.3598565800      0.1710000000      14.8256172091      0.5186305457      0.0000000000
0.5142873128       194567.3580810780      0.1730000000      14.7972528137      0.5280978422      0.0000000000
0.5232525891       178998.7384296290      0.1750000000      14.7700971871      0.5376120873      0.0000000000
0.5322529761       164814.2079079785      0.1770000000      14.7440763134      0.5471741793      0.0000000000
0.5412891318       151876.7536139530      0.1790000000      14.7191220278      0.5567849688      0.0000000000
0.5503616632       140064.4727166028      0.1810000000      14.6951715169      0.5664452568      0.0000000000
0.5594711248       129268.7180657724      0.1830000000      14.6721666407      0.5761557934      0.0000000000
0.5686180188       119392.5483740130      0.1850000000      14.6500538534      0.5859172767      0.0000000000
0.5778027890       110349.2578595751      0.1870000000      14.6287832832      0.5957303472      0.0000000000
0.5870258316       102061.2205597233      0.1890000000      14.6083087838      0.6055955982      0.0000000000
0.5962874793        94458.8296319539      0.1910000000      14.5885874341      0.6155135589      0.0000000000
0.6055880086        87479.5827501396      0.1930000000      14.5695792443      0.6254847016      0.0000000000
0.6149276400        81067.2602397354      0.1950000000      14.5512469537      0.6355094424      0.0000000000
0.6243065340        75171.2627941155      0.1970000000      14.5335558173      0.6455881351      0.0000000000
0.6337247932        69745.9543934812      0.1990000000      14.5164733262      0.6557210749      0.0000000000
0.6431824609        64750.1429121380      0.2010000000      14.4999690338      0.6659084953      0.0000000000
0.6526795205        60146.6060710935      0.2030000000      14.4840143678      0.6761505671      0.0000000000
0.6622159126        55901.6552531937      0.2050000000      14.4685825191      0.6864474177      0.0000000000
0.6717914696        51984.7956331357      0.2070000000      14.4536483117      0.6967990586      0.0000000000
0.6814060134        48368.3475997037      0.2090000000      14.4391879991      0.7072054917      0.0000000000
0.6910592905        45027.2026175146      0.2110000000      14.4251792135      0.7176666379      0.0000000000
0.7007509894        41938.5366047600      0.2130000000      14.4116007976      0.7281823564      0.0000000000
0.7104807393        39081.5979738258      0.2150000000      14.3984328076      0.7387524423      0.0000000000
0.7202481131        36437.4897732954      0.2170000000      14.3856563432      0.7493766296      0.0000000000
0.7300526262        33988.9901992880      0.2190000000      14.3732534284      0.7600545896      0.0000000000
0.7398937246        31720.4013644446      0.2210000000      14.3612070874      0.7707859175      0.0000000000
0.7497708383        29617.3838671080      0.2230000000      14.3495011677      0.7815701902      0.0000000000
0.7596833045        27666.8414695369      0.2250000000      14.3381202559      0.7924068818      0.0000000000
0.7696304194        25856.8046309612      0.2270000000      14.3270497402      0.8032954205      0.0000000000
0.7796114275        24176.3165647610      0.2290000000      14.3162756339      0.8142351757      0.0000000000
0.7896255219        22615.3482008228      0.2310000000      14.3057846289      0.8252254584      0.0000000000
0.7996718462        21164.7037464634      0.2330000000      14.2955638858      0.8362655228      0.0000000000
0.8097494960        19815.9569792223      0.2350000000      14.2856013043      0.8473545675      0.0000000000
0.8198575196        18561.3731616317      0.2370000000      14.2758851796      0.8584917356      0.0000000000
0.8299949202        17393.8495240757      0.2390000000      14.2664043125      0.8696761173      0.0000000000
0.8401606566        16306.8621174570      0.2410000000      14.2571479570      0.8809067496      0.0000000000
0.8503536459        15294.4112854835      0.2430000000      14.2481058279      0.8921826199      0.0000000000
0.8605727644        14350.9782874050      0.2450000000      14.2392679879      0.9035026654      0.0000000000
0.8708168491        13471.4838265126      0.2470000000      14.2306249075      0.9148657750      0.0000000000
0.8810847003        12651.2500294940      0.2490000000      14.2221674365      0.9262707922      0.0000000000
0.8913750828        11885.9654700958      0.2510000000      14.2138867534      0.9377165150      0.0000000000
0.9016867269        11171.6562017451      0.2530000000      14.2057742706      0.9492016981      0.0000000000
0.9120183324        10504.6560368979      0.2550000000      14.1978218534      0.9607250554      0.0000000000
0.9223685686         9881.5809812857      0.2570000000      14.1900215893      0.9722852611      0.0000000000
0.9327360764         9299.3064565674      0.2590000000      14.1823657808      0.9838809509      0.0000000000
0.9431194710         8754.9458126592      0.2610000000      14.1748470637      0.9955107248      0.0000000000
0.9535173430         8245.8318516879      0.2630000000      14.1674583429      1.0071731485      0.0000000000
0.9639282610         7769.4973943083      0.2650000000      14.1601927359      1.0188667552      0.0000000000
0.9743507731         7323.6599427946      0.2670000000      14.1530435671      1.0305900479      0.0000000000
0.9847834083         6906.2075081280      0.2690000000      14.1460044044      1.0423415000      0.0000000000
0.9952246797         6515.1844569391      0.2710000000      14.1390690611      1.0541195594      0.0000000000
1.0056730855         6148.7788608225      0.2730000000      14.1322315055      1.0659226483      0.0000000000
1.0161271108         5805.3125342592      0.2750000000      14.1254858954      1.0777491663      0.0000000000
1.0265852298         5483.2285109419      0.2770000000      14.1188266779      1.0895974918      0.0000000000
1.0370459076         5181.0838841065      0.2790000000      14.1122483866      1.1014659839      0.0000000000
1.0475076020         4897.5393387684      0.2810000000      14.1057457414      1.1133529847      0.0000000000
1.0579687652         4631.3518013311      0.2830000000      14.0993136641      1.1252568209      0.0000000000
1.0684278461         4381.3672192611      0.2850000000      14.0929472878      1.1371758060      0.0000000000
1.0788832904         4146.5141263611      0.2870000000      14.0866418188      1.1491082407      0.0000000000
1.0893335453         3925.7956208570      0.2890000000      14.0803926888      1.1610524178      0.0000000000
1.0997770574         3718.2864987396      0.2910000000      14.0741954562      1.1730066197      0.0000000000
1.1102122777         3523.1255983126      0.2930000000      14.0680458490      1.1849691246      0.0000000000
1.1206376610         3339.5121706856      0.2950000000      14.0619397333      1.1969382050      0.0000000000
1.1310516684         3166.7009309548      0.2970000000      14.0558730873      1.2089121307      0.0000000000
1.1414527684         3003.9985343732      0.2990000000      14.0498420758      1.2208891706      0.0000000000
1.1518394388         2850.7587356299      0.3010000000      14.0438429962      1.2328675942      0.0000000000
1.1622101678         2706.3801305656      0.3030000000      14.0378722627      1.2448456730      0.0000000000
1.1725634549         2570.3021321591      0.3050000000      14.0319264016      1.2568216818      0.0000000000
1.1828978131         2442.0022614196      0.3070000000      14.0260020991      1.2687939010      0.0000000000
1.1932117693         2320.9933812779      0.3090000000      14.0200961502      1.2807606172      0.0000000000
1.2035038664         2206.8209914454      0.3110000000      14.0142054723      1.2927201259      0.0000000000
1.2137726635         2099.0612538212      0.3130000000      14.0083271121      1.3046707311      0.0000000000
1.2240167378         1997.3183835005      0.3150000000      14.0024582174      1.3166107485      0.0000000000
1.2342346846         1901.2230734164      0.3170000000      13.9965960570      1.3285385050      0.0000000000
1.2444251197         1810.4303080873      0.3190000000      13.9907379979      1.3404523416      0.0000000000
1.2545866787         1724.6178761821      0.3210000000      13.9848815304      1.3523506131      0.0000000000
1.2647180196         1643.4845061258      0.3230000000      13.9790242348      1.3642316909      0.0000000000
1.2748178222         1566.7487346380      0.3250000000      13.9731638211      1.3760939623      0.0000000000
1.2848847895         1494.1472878672      0.3270000000      13.9672980630      1.3879358329      0.0000000000
1.2949176486         1425.4339178764      0.3290000000      13.9614248736      1.3997557275      0.0000000000
1.3049151502         1360.3783362469      0.3310000000      13.9555422051      1.4115520890      0.0000000000
1.3148760714         1298.7647898355      0.3330000000      13.9496481868      1.4233233830      0.0000000000
1.3247992139         1240.3913822712      0.3350000000      13.9437409288      1.4350680953      0.0000000000
1.3346834062         1185.0691221421      0.3370000000      13.9378187402      1.4467847347      0.0000000000
1.3445275031         1132.6208891414      0.3390000000      13.9318799523      1.4584718324      0.0000000000
1.3543303866         1082.8806851341      0.3410000000      13.9259229788      1.4701279437      0.0000000000
1.3640909660         1035.6929265676      0.3430000000      13.9199463369      1.4817516483      0.0000000000
1.3738081786          990.9117470218      0.3450000000      13.9139486359      1.4933415509      0.0000000000
1.3834809894          948.4003268699      0.3470000000      13.9079285439      1.5048962817      0.0000000000
1.3931083918          908.0302774028      0.3490000000      13.9018847670      1.5164144968      0.0000000000
1.4026894080          869.6810899787      0.3510000000      13.8958161834      1.5278948793      0.0000000000
1.4122230881          833.2397053816      0.3530000000      13.8897216403      1.5393361386      0.0000000000
1.4217085117          798.5998980334      0.3550000000      13.8836001209      1.5507370120      0.0000000000
1.4311447867          765.6618770832      0.3570000000      13.8774506418      1.5620962643      0.0000000000
1.4405310501          734.3319358057      0.3590000000      13.8712723101      1.5734126882      0.0000000000
1.4498664677          704.5219251031      0.3610000000      13.8650642470      1.5846851047      0.0000000000
1.4591502340          676.1490490939      0.3630000000      13.8588256986      1.5959123632      0.0000000000
1.4683815726          649.1353637872      0.3650000000      13.8525559541      1.6070933422      0.0000000000
1.4775597356          623.4075895361      0.3670000000      13.8462543226      1.6182269482      0.0000000000
1.4866840038          598.8967390082      0.3690000000      13.8399202018      1.6293121174      0.0000000000
1.4957536862          575.5379222226      0.3710000000      13.8335530378      1.6403478145      0.0000000000
1.5047681203          553.2700173780      0.3730000000      13.8271523392      1.6513330334      0.0000000000
1.5137266715          532.0354507673      0.3750000000      13.8207176466      1.6622667970      0.0000000000
1.5226287333          511.7799833231      0.3770000000      13.8142485613      1.6731481574      0.0000000000
1.5314737265          492.4524962392      0.3790000000      13.8077447195      1.6839761958      0.0000000000
1.5402610993          474.0048291865      0.3810000000      13.8012058179      1.6947500219      0.0000000000
1.5489903272          456.3915522304      0.3830000000      13.7946315855      1.7054687746      0.0000000000
1.5576609122          439.5698194879      0.3850000000      13.7880218044      1.7161316215      0.0000000000
1.5662723858          423.4991674031      0.3870000000      13.7813762900      1.7267377624      0.0000000000
1.5748242936          408.1414918723      0.3890000000      13.7746948982      1.7372864110      0.0000000000
1.5833162249          393.4607583732      0.3910000000      13.7679775198      1.7477768308      0.0000000000
1.5917477823          379.4229770993      0.3930000000      13.7612240922      1.7582082989      0.0000000000
1.6001185966          365.9959905061      0.3950000000      13.7544345577      1.7685801241      0.0000000000
1.6084283230          353.1494777980      0.3970000000      13.7476089379      1.7788916424      0.0000000000
1.6166766411          340.8547582930      0.3990000000      13.7407472564      1.7891422173      0.0000000000
1.6248632540          329.0846989513      0.4010000000      13.7338495645      1.7993312389      0.0000000000
1.6329878883          317.8136752790      0.4030000000      13.7269159593      1.8094581244      0.0000000000
1.6410502936          307.0174387436      0.4050000000      13.7199465696      1.8195223175      0.0000000000
1.6490502419          296.6730419074      0.4070000000      13.7129414931      1.8295232872      0.0000000000
1.6569875276          286.7587573554      0.4090000000      13.7059009591      1.8394605294      0.0000000000
1.6648619660          277.2540456955      0.4110000000      13.6988251340      1.8493335644      0.0000000000
1.6726733943          268.1394325428      0.4130000000      13.6917142370      1.8591419380      0.0000000000
1.6804216700          259.3964855058      0.4150000000      13.6845684994      1.8688852204      0.0000000000
1.6881066708          251.0077380053      0.4170000000      13.6773881891      1.8785630063      0.0000000000
1.6957282945          242.9566336983      0.4190000000      13.6701735855      1.8881749143      0.0000000000
1.7032864580          235.2274809546      0.4210000000      13.6629249961      1.8977205863      0.0000000000
1.7107810972          227.8054005453      0.4230000000      13.6556427192      1.9071996875      0.0000000000
1.7182121661          220.6762835394      0.4250000000      13.6483270985      1.9166119057      0.0000000000
1.7255796372          213.8267339855      0.4270000000      13.6409784958      1.9259569513      0.0000000000
1.7328834999          207.2440559673      0.4290000000      13.6335972580      1.9352345561      0.0000000000
1.7401237610          200.9161846174      0.4310000000      13.6261837630      1.9444444738      0.0000000000
1.7473004439          194.8316639383      0.4330000000      13.6187384101      1.9535864789      0.0000000000
1.7544135878          188.9796274536      0.4350000000      13.6112616001      1.9626603668      0.0000000000
1.7614632478          183.3497383415      0.4370000000      13.6037537627      1.9716659528      0.0000000000
1.7684494941          177.9321874764      0.4390000000      13.5962153201      1.9806030724      0.0000000000
1.7753724119          172.7176348686      0.4410000000      13.5886466935      1.9894715801      0.0000000000
1.7822321004          167.6972234418      0.4430000000      13.5810483421      1.9982713494      0.0000000000
1.7890286730          162.8625095935      0.4450000000      13.5734207279      2.0070022727      0.0000000000
