# M(M_sol)                 Lambda          n_Bc(fm^-3)         R(km)            m_B(M_sol)        m_Bquar/M_B
0.1549632550     10689947.5214888137      0.1660000000      16.7728852446      0.1552621401      0.0000000000
0.1621874565      8497657.0515366923      0.1680000000      16.1800215165      0.1626013441      0.0000000000
0.1697782112      6782972.9391578324      0.1700000000      15.6653472090      0.1703223530      0.0000000000
0.1777326501      5436545.9402668234      0.1720000000      15.2173004110      0.1784235367      0.0000000000
0.1860477768      4375176.6509537622      0.1740000000      14.8263051769      0.1869031699      0.0000000000
0.1947204160      3535282.9448603075      0.1760000000      14.4843895612      0.1957593770      0.0000000000
0.2037472525      2868093.2979732589      0.1780000000      14.1848879378      0.2049901689      0.0000000000
0.2131246951      2336056.4212191827      0.1800000000      13.9221872280      0.2145933010      0.0000000000
0.2228489686      1910168.5623923379      0.1820000000      13.6915465042      0.2245663637      0.0000000000
0.2329160510      1567952.4835964555      0.1840000000      13.4889387089      0.2349067155      0.0000000000
0.2433216641      1291929.5604613773      0.1860000000      13.3109273398      0.2456114689      0.0000000000
0.2540612579      1068462.7511233392      0.1880000000      13.1545663943      0.2566774714      0.0000000000
0.2651300042       886876.0275355978      0.1900000000      13.0173195074      0.2681012949      0.0000000000
0.2765228094       738782.7704382221      0.1920000000      12.8969952640      0.2798792449      0.0000000000
0.2882343002       617572.4581161444      0.1940000000      12.7916926443      0.2920073422      0.0000000000
0.3002587875       518015.2152855734      0.1960000000      12.6997523735      0.3044812804      0.0000000000
0.3125903381       435960.4475288615      0.1980000000      12.6197269557      0.3172964972      0.0000000000
0.3252227282       368101.9984255738      0.2000000000      12.5503451959      0.3304481211      0.0000000000
0.3381494526       311797.4142943625      0.2020000000      12.4904870145      0.3439309770      0.0000000000
0.3513637647       264927.8107849744      0.2040000000      12.4391651169      0.3577396232      0.0000000000
0.3648586727       225788.2968522259      0.2060000000      12.3955056043      0.3718683442      0.0000000000
0.3786269239       193002.3307900460      0.2080000000      12.3587304956      0.3863111290      0.0000000000
0.3926610441       165455.1556106258      0.2100000000      12.3281474439      0.4010617084      0.0000000000
0.4069533600       142241.0251760791      0.2120000000      12.3031396276      0.4161135750      0.0000000000
0.4214959792       122621.6000934394      0.2140000000      12.2831531422      0.4314599574      0.0000000000
0.4362808406       105993.2749890111      0.2160000000      12.2676925928      0.4470938700      0.0000000000
0.4512996978        91860.9980267106      0.2180000000      12.2563111135      0.4630080913      0.0000000000
0.4665441677        79817.6245691095      0.2200000000      12.2486075603      0.4791952118      0.0000000000
0.4820057161        69527.2539644336      0.2220000000      12.2442186505      0.4956476154      0.0000000000
0.4976757029        60712.0280360987      0.2240000000      12.2428169992      0.5123575236      0.0000000000
0.5135453822        53141.4344531917      0.2260000000      12.2441060158      0.5293169934      0.0000000000
0.5296059108        46623.6962201696      0.2280000000      12.2478156364      0.5465179222      0.0000000000
0.5458483884        40998.8670166029      0.2300000000      12.2537011337      0.5639520891      0.0000000000
0.5622638431        36133.1931543632      0.2320000000      12.2615401344      0.5816111360      0.0000000000
0.5788432788        31914.5106728398      0.2340000000      12.2711293874      0.5994866165      0.0000000000
0.5955776791        28248.5589608493      0.2360000000      12.2822844254      0.6175699978      0.0000000000
0.6124580026        25055.8931171328      0.2380000000      12.2948352067      0.6358526540      0.0000000000
0.6294752404        22269.4292873192      0.2400000000      12.3086284586      0.6543259259      0.0000000000
0.6466203929        19832.3612674374      0.2420000000      12.3235228686      0.6729810953      0.0000000000
0.6638844927        17696.4820048190      0.2440000000      12.3393887380      0.6918094074      0.0000000000
0.6812586435        15820.8001352130      0.2460000000      12.3561090641      0.7108021133      0.0000000000
0.6987339702        14170.3549901621      0.2480000000      12.3735730551      0.7299504136      0.0000000000
0.7163017258        12715.3055518404      0.2500000000      12.3916837060      0.7492455756      0.0000000000
0.7339532028        11430.0852746568      0.2520000000      12.4103479122      0.7686788349      0.0000000000
0.7516798194        10292.7733614561      0.2540000000      12.4294826783      0.7882414903      0.0000000000
0.7694730947         9284.5235264568      0.2560000000      12.4490111978      0.8079248766      0.0000000000
0.7873246682         8389.1040770403      0.2580000000      12.4688632258      0.8277203861      0.0000000000
0.8052262977         7592.5036942931      0.2600000000      12.4889734587      0.8476194664      0.0000000000
0.8231698839         6882.6107098114      0.2620000000      12.5092826498      0.8676136486      0.0000000000
0.8411474692         6248.9317902844      0.2640000000      12.5297362543      0.8876945462      0.0000000000
0.8591512469         5682.3591743639      0.2660000000      12.5502842367      0.9078538668      0.0000000000
0.8771735668         5174.9753429560      0.2680000000      12.5708807429      0.9280834187      0.0000000000
0.8952069433         4719.8837082575      0.2700000000      12.5914838102      0.9483751218      0.0000000000
0.9132440551         4311.0662225770      0.2720000000      12.6120546384      0.9687210079      0.0000000000
0.9312777588         3943.2637047056      0.2740000000      12.6325581094      0.9891132379      0.0000000000
0.9493010893         3611.8725570652      0.2760000000      12.6529622946      1.0095441039      0.0000000000
0.9673072535         3312.8541490393      0.2780000000      12.6732370646      1.0300060230      0.0000000000
0.9852896529         3042.6630265647      0.2800000000      12.6933559988      1.0504915657      0.0000000000
1.0032418727         2798.1796035091      0.2820000000      12.7132946950      1.0709934445      0.0000000000
1.0211576829         2576.6549828620      0.2840000000      12.7330306080      1.0915045176      0.0000000000
1.0390310494         2375.6640478976      0.2860000000      12.7525437571      1.1120178035      0.0000000000
1.0568561250         2193.0632688328      0.2880000000      12.7718155995      1.1325264727      0.0000000000
1.0746272604         2026.9559408651      0.2900000000      12.7908299458      1.1530238628      0.0000000000
1.0923389925         1875.6606683517      0.2920000000      12.8095715588      1.1735034667      0.0000000000
1.1099860558         1737.6852813473      0.2940000000      12.8280272494      1.1939589484      0.0000000000
1.1275633758         1611.7036232628      0.2960000000      12.8461850834      1.2143841379      0.0000000000
1.1450660693         1496.5353614757      0.2980000000      12.8640345048      1.2347730332      0.0000000000
1.1624894423         1391.1285195284      0.3000000000      12.8815659607      1.2551198009      0.0000000000
1.1798289894         1294.5443236297      0.3020000000      12.8987710833      1.2754187774      0.0000000000
1.1970803935         1205.9440814500      0.3040000000      12.9156426242      1.2956644712      0.0000000000
1.2142395249         1124.5774034245      0.3060000000      12.9321745347      1.3158515643      0.0000000000
1.2313024349         1049.7721945274      0.3080000000      12.9483614818      1.3359749067      0.0000000000
1.2482653525          980.9253246088      0.3100000000      12.9641985714      1.3560295155      0.0000000000
1.2651246887          917.4956142853      0.3120000000      12.9796822869      1.3760105818      0.0000000000
1.2818770320          858.9963967465      0.3140000000      12.9948099526      1.3959134681      0.0000000000
1.2985191353          804.9894353024      0.3160000000      13.0095786746      1.4157336947      0.0000000000
1.3150479239          755.0799769194      0.3180000000      13.0239866338      1.4354669524      0.0000000000
1.3314604940          708.9120063303      0.3200000000      13.0380330783      1.4551091018      0.0000000000
1.3477541001          666.1638798591      0.3220000000      13.0517173352      1.4746561616      0.0000000000
1.3639261533          626.5446902618      0.3240000000      13.0650389544      1.4941043084      0.0000000000
1.3799742272          589.7914191826      0.3260000000      13.0779987478      1.5134498856      0.0000000000
1.3958960368          555.6653901011      0.3280000000      13.0905967188      1.5326893807      0.0000000000
1.4116894560          523.9504511262      0.3300000000      13.1028345350      1.5518194485      0.0000000000
1.4273524976          494.4502144481      0.3320000000      13.1147135647      1.5708368885      0.0000000000
1.4428833164          466.9862115693      0.3340000000      13.1262357015      1.5897386512      0.0000000000
1.4582801968          441.3959668492      0.3360000000      13.1374022856      1.6085218250      0.0000000000
1.4735415712          417.5317837125      0.3380000000      13.1482166817      1.6271836600      0.0000000000
1.4886659872          395.2588124855      0.3400000000      13.1586809425      1.6457215304      0.0000000000
1.5036521243          374.4541216847      0.3420000000      13.1687980648      1.6641329565      0.0000000000
1.5184987804          355.0054103634      0.3440000000      13.1785709808      1.6824155901      0.0000000000
1.5332048730          336.8100621674      0.3460000000      13.1880030324      1.7005672177      0.0000000000
1.5477694309          319.7741612996      0.3480000000      13.1970974371      1.7185857514      0.0000000000
1.5621915979          303.8117844647      0.3500000000      13.2058582281      1.7364692359      0.0000000000
1.5764706162          288.8440765514      0.3520000000      13.2142885836      1.7542158287      0.0000000000
1.5906058325          274.7987421714      0.3540000000      13.2223920770      1.7718238102      0.0000000000
1.6045967031          261.6095340786      0.3560000000      13.2301737702      1.7892915905      0.0000000000
1.6184427624          249.2153893112      0.3580000000      13.2376366490      1.8066176719      0.0000000000
1.6321436448          237.5602512897      0.3600000000      13.2447848417      1.8238006777      0.0000000000
1.6456990781          226.5925868462      0.3620000000      13.2516232783      1.8408393455      0.0000000000
1.6591088646          216.2648194043      0.3640000000      13.2581555935      1.8577325037      0.0000000000
1.6723728949          206.5331771906      0.3660000000      13.2643864058      1.8744790911      0.0000000000
1.6854911318          197.3572196034      0.3680000000      13.2703196634      1.8910781379      0.0000000000
1.6984636215          188.6996962739      0.3700000000      13.2759604516      1.9075287796      0.0000000000
1.7112904716          180.5260949572      0.3720000000      13.2813125498      1.9238302313      0.0000000000
1.7239718631          172.8045591725      0.3740000000      13.2863804348      1.9399818038      0.0000000000
1.7365080462          165.5056377074      0.3760000000      13.2911691210      1.9559828991      0.0000000000
1.7488993249          158.6019977189      0.3780000000      13.2956824257      1.9718329910      0.0000000000
1.7611460701          152.0683701136      0.3800000000      13.2999252187      1.9875316441      0.0000000000
1.7732487071          145.8813014618      0.3820000000      13.3039019978      2.0030784971      0.0000000000
1.7852077108          140.0190094497      0.3840000000      13.3076166929      2.0184732587      0.0000000000
1.7970236161          134.4613211044      0.3860000000      13.3110743713      2.0337157208      0.0000000000
1.8086970002          129.1894519439      0.3880000000      13.3142792181      2.0488057366      0.0000000000
1.8202284884          124.1859551875      0.3900000000      13.3172356758      2.0637432292      0.0000000000
1.8316187512          119.4346032647      0.3920000000      13.3199483077      2.0785281878      0.0000000000
1.8428684961          114.9202637940      0.3940000000      13.3224210362      2.0931606577      0.0000000000
1.8539784750          110.6288722447      0.3960000000      13.3246585280      2.1076407514      0.0000000000
1.8649494752          106.5473096140      0.3980000000      13.3266651418      2.1219686359      0.0000000000
1.8757823168          102.6633315159      0.4000000000      13.3284449803      2.1361445312      0.0000000000
1.8864778544           98.9655170850      0.4020000000      13.3300022714      2.1501687117      0.0000000000
1.8970369732           95.4432035784      0.4040000000      13.3313412771      2.1640415024      0.0000000000
1.9074605878           92.0864315683      0.4060000000      13.3324662286      2.1777632774      0.0000000000
1.9177496382           88.8858812799      0.4080000000      13.3333811585      2.1913344549      0.0000000000
1.9279050922           85.8328460468      0.4100000000      13.3340903444      2.2047555005      0.0000000000
1.9379279345           82.9191519864      0.4120000000      13.3345971627      2.2180269140      0.0000000000
1.9478191815           80.1371845590      0.4140000000      13.3349063766      2.2311492481      0.0000000000
1.9575798619           77.4797765126      0.4160000000      13.3350215081      2.2441230834      0.0000000000
1.9672110254           74.9402192518      0.4180000000      13.3349464357      2.2569490403      0.0000000000
1.9767137394           72.5122226714      0.4200000000      13.3346850350      2.2696277747      0.0000000000
1.9860890883           70.1898840370      0.4220000000      13.3342413513      2.2821599772      0.0000000000
1.9953381653           67.9676482966      0.4240000000      13.3336185699      2.2945463625      0.0000000000
2.0044620833           65.8403157416      0.4260000000      13.3328207984      2.3067876837      0.0000000000
2.0134619631           63.8029863758      0.4280000000      13.3318515588      2.3188847169      0.0000000000
2.0223389367           61.8510541704      0.4300000000      13.3307143699      2.3308382656      0.0000000000
2.0310941469           59.9801925983      0.4320000000      13.3294130080      2.3426491608      0.0000000000
2.0397287406           58.1863100498      0.4340000000      13.3279504107      2.3543182506      0.0000000000
2.0482438783           56.4655790625      0.4360000000      13.3263306083      2.3658464148      0.0000000000
2.0566407194           54.8143689550      0.4380000000      13.3245563934      2.3772345442      0.0000000000
2.0649204347           53.2292743601      0.4400000000      13.3226314353      2.3884835569      0.0000000000
2.0730841967           51.7070772897      0.4420000000      13.3205590019      2.3995943867      0.0000000000
2.0811331811           50.2447404683      0.4440000000      13.3183422692      2.4105679837      0.0000000000
2.0890685648           48.8393927335      0.4460000000      13.3159841090      2.4214053124      0.0000000000
2.0968915309           47.4883350637      0.4480000000      13.3134881019      2.4321073584      0.0000000000
2.1046032573           46.1890003054      0.4500000000      13.3108567564      2.4426751122      0.0000000000
2.1122049288           44.9389807075      0.4520000000      13.3080936440      2.4531095863      0.0000000000
2.1196977246           43.7359836422      0.4540000000      13.3052013741      2.4634117977      0.0000000000
2.1270828248           42.5778468061      0.4560000000      13.3021828954      2.4735827770      0.0000000000
2.1343614075           41.4625235288      0.4580000000      13.2990410289      2.4836235642      0.0000000000
2.1415346500           40.3880770919      0.4600000000      13.2957788324      2.4935352102      0.0000000000
2.1486037229           39.3526671858      0.4620000000      13.2923986327      2.5033187689      0.0000000000
2.1555697981           38.3545578087      0.4640000000      13.2889035293      2.5129753073      0.0000000000
2.1624340388           37.3920939469      0.4660000000      13.2852957221      2.5225058928      0.0000000000
2.1691976091           36.4637179148      0.4680000000      13.2815783400      2.5319116053      0.0000000000
2.1758616640           35.5679411766      0.4700000000      13.2777536314      2.5411935239      0.0000000000
2.1824273551           34.7033558354      0.4720000000      13.2738241737      2.5503527342      0.0000000000
2.1888958276           33.8686232932      0.4740000000      13.2697923792      2.5593903245      0.0000000000
2.1952682228           33.0624772571      0.4760000000      13.2656609741      2.5683073890      0.0000000000
2.2015456710           32.2837026365      0.4780000000      13.2614317824      2.5771050171      0.0000000000
2.2077293015           31.5311587597      0.4800000000      13.2571076359      2.5857843086      0.0000000000
2.2138202320           30.8037497385      0.4820000000      13.2526904718      2.5943463570      0.0000000000
2.2198195762           30.1004407216      0.4840000000      13.2481828177      2.6027922617      0.0000000000
2.2257284384           29.4202428168      0.4860000000      13.2435867631      2.6111231191      0.0000000000
2.2315479155           28.7622154681      0.4880000000      13.2389044691      2.6193400260      0.0000000000
2.2372790958           28.1254622562      0.4900000000      13.2341379620      2.6274440771      0.0000000000
2.2429230608           27.5091316706      0.4920000000      13.2292894307      2.6354363678      0.0000000000
2.2484808824           26.9124098929      0.4940000000      13.2243608944      2.6433179902      0.0000000000
2.2539536251           26.3345240232      0.4960000000      13.2193544731      2.6510900357      0.0000000000
2.2593423424           25.7747326017      0.4980000000      13.2142718718      2.6587535900      0.0000000000
2.2646480812           25.2323332836      0.5000000000      13.2091152728      2.6663097390      0.0000000000
2.2698718773           24.7066512831      0.5020000000      13.2038862983      2.6737595626      0.0000000000
2.2750147597           24.1970470614      0.5040000000      13.1985870673      2.6811041402      0.0000000000
2.2800777459           23.7029071483      0.5060000000      13.1932192816      2.6883445441      0.0000000000
2.2850618454           23.2236461764      0.5080000000      13.1877847322      2.6954818443      0.0000000000
2.2899680565           22.7587042124      0.5100000000      13.1822850658      2.7025171041      0.0000000000
2.2947973694           22.3075471224      0.5120000000      13.1767219985      2.7094513834      0.0000000000
2.2995507647           21.8696650515      0.5140000000      13.1710973247      2.7162857380      0.0000000000
2.3042292125           21.4445690243      0.5160000000      13.1654125974      2.7230212162      0.0000000000
2.3088336747           21.0317931246      0.5180000000      13.1596696712      2.7296588636      0.0000000000
2.3133650995           20.6308874433      0.5200000000      13.1538696637      2.7361997143      0.0000000000
2.3178244305           20.2414268442      0.5220000000      13.1480145306      2.7426448038      0.0000000000
2.3222125969           19.8629998255      0.5240000000      13.1421054907      2.7489951551      0.0000000000
