# M(M_sol)                 Lambda          n_Bc(fm^-3)         R(km)            m_B(M_sol)        m_Bquar/M_B
0.1509276904     12029714.6202477738      0.1660000000      17.1251372500      0.1511603186      0.0000000000
0.1573274724      9717418.2393400315      0.1680000000      16.5327735393      0.1576568010      0.0000000000
0.1640082468      7882971.1850623414      0.1700000000      16.0148514184      0.1644459113      0.0000000000
0.1709659792      6421286.7727131629      0.1720000000      15.5605213324      0.1715244206      0.0000000000
0.1781967041      5251776.3515708288      0.1740000000      15.1607982917      0.1788891810      0.0000000000
0.1856965303      4312259.0317968335      0.1760000000      14.8081913786      0.1865371302      0.0000000000
0.1934616262      3554532.9249937381      0.1780000000      14.4964280574      0.1944652755      0.0000000000
0.2014880921      2941058.2649243861      0.1800000000      14.2202172652      0.2026705618      0.0000000000
0.2097721247      2442491.8056921023      0.1820000000      13.9750884834      0.2111500388      0.0000000000
0.2183098033      2035798.7101500845      0.1840000000      13.7572302340      0.2199006405      0.0000000000
0.2270972062      1702835.0531896411      0.1860000000      13.5633880148      0.2289193034      0.0000000000
0.2361302885      1429253.8018287206      0.1880000000      13.3907612288      0.2382028395      0.0000000000
0.2454050276      1203674.7173948491      0.1900000000      13.2369428583      0.2477480839      0.0000000000
0.2549172139      1017032.4294660258      0.1920000000      13.0998390577      0.2575516782      0.0000000000
0.2646626303       862086.0028672754      0.1940000000      12.9776364506      0.2676102539      0.0000000000
0.2746369151       733028.0829923489      0.1960000000      12.8687480159      0.2779202888      0.0000000000
0.2848356357       625187.0224361335      0.1980000000      12.7717862561      0.2884781820      0.0000000000
0.2952542045       534790.5135235422      0.2000000000      12.6855267595      0.2992801642      0.0000000000
0.3058880191       458784.7875301348      0.2020000000      12.6088976537      0.3103224423      0.0000000000
0.3167322769       394686.5341738545      0.2040000000      12.5409418955      0.3216010045      0.0000000000
0.3277821553       340472.7636073696      0.2060000000      12.4808176283      0.3331118057      0.0000000000
0.3390327066       294488.5078722131      0.2080000000      12.4277734066      0.3448506571      0.0000000000
0.3504788572       255375.8367388435      0.2100000000      12.3811358957      0.3568132228      0.0000000000
0.3621154917       222017.9434049276      0.2120000000      12.3403071619      0.3689951064      0.0000000000
0.3739373695       193492.7847545059      0.2140000000      12.3047475192      0.3813917616      0.0000000000
0.3859392099       169037.4728479753      0.2160000000      12.2739752637      0.3939985800      0.0000000000
0.3981156275       148018.6259482733      0.2180000000      12.2475540665      0.4068108219      0.0000000000
0.4104611871       129909.1025589570      0.2200000000      12.2250915039      0.4198236719      0.0000000000
0.4229703754       114268.8829781261      0.2220000000      12.2062312893      0.4330322081      0.0000000000
0.4356376361       100729.7724357676      0.2240000000      12.1906514522      0.4464314371      0.0000000000
0.4484573730        88982.8867034268      0.2260000000      12.1780604997      0.4600162966      0.0000000000
0.4614239274        78768.3092707372      0.2280000000      12.1681914329      0.4737816295      0.0000000000
0.4745316148        69866.8962731306      0.2300000000      12.1608017349      0.4877222217      0.0000000000
0.4877747538        62093.4921543773      0.2320000000      12.1556727460      0.5018328323      0.0000000000
0.5011476075        55291.1022825903      0.2340000000      12.1526018067      0.5161081290      0.0000000000
0.5146444186        49326.3670962426      0.2360000000      12.1514025716      0.5305427255      0.0000000000
0.5282594694        44085.8726723077      0.2380000000      12.1519077813      0.5451312441      0.0000000000
0.5419870022        39472.8112016717      0.2400000000      12.1539623050      0.5598682294      0.0000000000
0.5558212878        35404.4143964197      0.2420000000      12.1574238119      0.5747482221      0.0000000000
0.5697566172        31809.7864679122      0.2440000000      12.1621624891      0.5897657483      0.0000000000
0.5837872620        28627.9975359850      0.2460000000      12.1680554073      0.6049152764      0.0000000000
0.5979075873        25806.7288461382      0.2480000000      12.1749952655      0.6201913388      0.0000000000
0.6121119271        23300.7879471643      0.2500000000      12.1828774669      0.6355883967      0.0000000000
0.6263946996        21071.2053083333      0.2520000000      12.1916097025      0.6511009640      0.0000000000
0.6407503453        19084.2293753357      0.2540000000      12.2011048004      0.6667235409      0.0000000000
0.6551733560        17310.6031095303      0.2560000000      12.2112824092      0.6824506441      0.0000000000
0.6696582827        15724.9204891151      0.2580000000      12.2220687637      0.6982768163      0.0000000000
0.6841997328        14305.0732166659      0.2600000000      12.2333953839      0.7141966224      0.0000000000
0.6987923844        13031.7979000749      0.2620000000      12.2451995954      0.7302046655      0.0000000000
0.7134309663        11888.2614742645      0.2640000000      12.2574218204      0.7462955647      0.0000000000
0.7281103040        10859.7604810906      0.2660000000      12.2700091641      0.7624640062      0.0000000000
0.7428252751         9933.4004695228      0.2680000000      12.2829105788      0.7787046947      0.0000000000
0.7575708581         9097.8790600617      0.2700000000      12.2960807165      0.7950124067      0.0000000000
0.7723420986         8343.2562456550      0.2720000000      12.3094762601      0.8113819542      0.0000000000
0.7871341321         7660.7846106390      0.2740000000      12.3230574075      0.8278082102      0.0000000000
0.8019421823         7042.7542669226      0.2760000000      12.3367873624      0.8442861070      0.0000000000
0.8167615661         6482.3601176679      0.2780000000      12.3506322989      0.8608106427      0.0000000000
0.8315876910         5973.5843891889      0.2800000000      12.3645606771      0.8773768790      0.0000000000
0.8464160600         5511.0996430301      0.2820000000      12.3785433564      0.8939799468      0.0000000000
0.8612422833         5090.1860820535      0.2840000000      12.3925543733      0.9106150603      0.0000000000
0.8760620427         4706.6444466459      0.2860000000      12.4065672003      0.9272774779      0.0000000000
0.8908711442         4356.7493693444      0.2880000000      12.4205595818      0.9439625617      0.0000000000
0.9056654906         4037.1832512077      0.2900000000      12.4345106077      0.9606657480      0.0000000000
0.9204410785         3744.9865818780      0.2920000000      12.4484002462      0.9773825444      0.0000000000
0.9351940128         3477.5194765223      0.2940000000      12.4622104605      0.9941085469      0.0000000000
0.9499205083         3232.4245576857      0.2960000000      12.4759254628      1.0108394434      0.0000000000
0.9646168589         3007.5866733572      0.2980000000      12.4895280987      1.0275709786      0.0000000000
0.9792795010         2801.1198047231      0.3000000000      12.5030065398      1.0442990278      0.0000000000
0.9939049347         2611.3239211897      0.3020000000      12.5163459530      1.0610195080      0.0000000000
1.0084898003         2436.6794830044      0.3040000000      12.5295363008      1.0777284660      0.0000000000
1.0230308088         2275.8144269856      0.3060000000      12.5425650555      1.0944220002      0.0000000000
1.0375248000         2127.4986074594      0.3080000000      12.5554235119      1.1110963277      0.0000000000
1.0519687041         1990.6212948364      0.3100000000      12.5681023517      1.1277477421      0.0000000000
1.0663595521         1864.1805788168      0.3120000000      12.5805929340      1.1443726255      0.0000000000
1.0806944885         1747.2735113885      0.3140000000      12.5928887125      1.1609674651      0.0000000000
1.0949707444         1639.0818478240      0.3160000000      12.6049823261      1.1775288225      0.0000000000
1.1091856633         1538.8670235616      0.3180000000      12.6168684452      1.1940533651      0.0000000000
1.1233366757         1445.9585294969      0.3200000000      12.6285411032      1.2105378374      0.0000000000
1.1374213214         1359.7498063311      0.3220000000      12.6399962125      1.2269790883      0.0000000000
1.1514372214         1279.6885678570      0.3240000000      12.6512284908      1.2433740388      0.0000000000
1.1653821044         1205.2746289458      0.3260000000      12.6622346188      1.2597197145      0.0000000000
1.1792537950         1136.0532084260      0.3280000000      12.6730119528      1.2760132330      0.0000000000
1.1930501999         1071.6094037454      0.3300000000      12.6835571860      1.2922517884      0.0000000000
1.2067693200         1011.5654450490      0.3320000000      12.6938676879      1.3084326663      0.0000000000
1.2204092551          955.5778042265      0.3340000000      12.7039424046      1.3245532513      0.0000000000
1.2339681760          903.3314448398      0.3360000000      12.7137786330      1.3406109940      0.0000000000
1.2474443539          854.5397626986      0.3380000000      12.7233756562      1.3566034474      0.0000000000
1.2608361423          808.9404839221      0.3400000000      12.7327327950      1.3725282465      0.0000000000
1.2741419722          766.2931805805      0.3420000000      12.7418490014      1.3883831028      0.0000000000
1.2873603600          726.3780071350      0.3440000000      12.7507240030      1.4041658158      0.0000000000
1.3004898997          688.9932239399      0.3460000000      12.7593574881      1.4198742638      0.0000000000
1.3135292665          653.9540610800      0.3480000000      12.7677498352      1.4355064095      0.0000000000
1.3264772141          621.0909430651      0.3500000000      12.7759018683      1.4510602974      0.0000000000
1.3393325539          590.2471024018      0.3520000000      12.7838126291      1.4665340297      0.0000000000
1.3520941951          561.2798141803      0.3540000000      12.7914843815      1.4819258164      0.0000000000
1.3647611003          534.0567370306      0.3560000000      12.7989174110      1.4972339206      0.0000000000
1.3773323073          508.4563469442      0.3580000000      12.8061129482      1.5124566882      0.0000000000
1.3898069205          484.3665510996      0.3600000000      12.8130722375      1.5275925360      0.0000000000
1.4021841076          461.6838878087      0.3620000000      12.8197963926      1.5426399500      0.0000000000
1.4144631050          440.3130702326      0.3640000000      12.8262872605      1.5575974921      0.0000000000
1.4266432086          420.1659576162      0.3660000000      12.8325464624      1.5724637898      0.0000000000
1.4387237751          401.1610919822      0.3680000000      12.8385757711      1.5872375386      0.0000000000
1.4507042161          383.2229752914      0.3700000000      12.8443765941      1.6019174952      0.0000000000
1.4625840074          366.2820128512      0.3720000000      12.8499513603      1.6165024903      0.0000000000
1.4743626764          350.2736011007      0.3740000000      12.8553020770      1.6309914127      0.0000000000
1.4860398039          335.1378361431      0.3760000000      12.8604308138      1.6453832133      0.0000000000
1.4976150210          320.8191277077      0.3780000000      12.8653395301      1.6596769013      0.0000000000
1.5090880129          307.2659662474      0.3800000000      12.8700306351      1.6738715494      0.0000000000
1.5204585127          294.4305435973      0.3820000000      12.8745066042      1.6879662874      0.0000000000
1.5317262993          282.2683403157      0.3840000000      12.8787697085      1.7019602994      0.0000000000
1.5428911956          270.7379432450      0.3860000000      12.8828220882      1.7158528226      0.0000000000
1.5539530731          259.8009293683      0.3880000000      12.8866665035      1.7296431532      0.0000000000
1.5649118435          249.4214835961      0.3900000000      12.8903054645      1.7433306371      0.0000000000
1.5757674547          239.5660949944      0.3920000000      12.8937408349      1.7569146648      0.0000000000
1.5865199058          230.2038415488      0.3940000000      12.8969760600      1.7703946906      0.0000000000
1.5971692239          221.3056154763      0.3960000000      12.9000132630      1.7837702046      0.0000000000
1.6077154782          212.8443954270      0.3980000000      12.9028552930      1.7970407503      0.0000000000
1.6181587678          204.7948105817      0.4000000000      12.9055042696      1.8102059098      0.0000000000
1.6284992338          197.1333438042      0.4020000000      12.9079633990      1.8232653198      0.0000000000
1.6387370423          189.8378375246      0.4040000000      12.9102348336      1.8362186498      0.0000000000
1.6488723954          182.8876757661      0.4060000000      12.9123213658      1.8490656171      0.0000000000
1.6589055256          176.2635663059      0.4080000000      12.9142258331      1.8618059800      0.0000000000
1.6688366905          169.9473615682      0.4100000000      12.9159505139      1.8744395311      0.0000000000
1.6786661800          163.9221604268      0.4120000000      12.9174983273      1.8869661067      0.0000000000
1.6883943084          158.1720756539      0.4140000000      12.9188718915      1.8993855775      0.0000000000
1.6980214143          152.6821856896      0.4160000000      12.9200736212      1.9116978484      0.0000000000
1.7075478625          147.4385280911      0.4180000000      12.9211062328      1.9239028616      0.0000000000
1.7169740416          142.4280071177      0.4200000000      12.9219724773      1.9360005932      0.0000000000
1.7263003612          137.6383026602      0.4220000000      12.9226749627      1.9479910508      0.0000000000
1.7355272523          133.0578391091      0.4240000000      12.9232162573      1.9598742730      0.0000000000
1.7446551651          128.6757215238      0.4260000000      12.9235988379      1.9716503277      0.0000000000
1.7536845695          124.4817138738      0.4280000000      12.9238251961      1.9833193131      0.0000000000
1.7626159548          120.4661977028      0.4300000000      12.9238979893      1.9948813567      0.0000000000
1.7714498271          116.6201162479      0.4320000000      12.9238197909      2.0063366129      0.0000000000
1.7801867090          112.9349358023      0.4340000000      12.9235931371      2.0176852622      0.0000000000
1.7888271387          109.4026173167      0.4360000000      12.9232205812      2.0289275107      0.0000000000
1.7973716673          106.0155569540      0.4380000000      12.9227043590      2.0400635866      0.0000000000
1.8058208621          102.7666195199      0.4400000000      12.9220470587      2.0510937443      0.0000000000
1.8141753021           99.6490453723      0.4420000000      12.9212509649      2.0620182594      0.0000000000
1.8224355801           96.6564826624      0.4440000000      12.9203186582      2.0728374306      0.0000000000
1.8306022998           93.7829151019      0.4460000000      12.9192524769      2.0835515766      0.0000000000
1.8386760762           91.0226737843      0.4480000000      12.9180548809      2.0941610372      0.0000000000
1.8466575327           88.3703696279      0.4500000000      12.9167279990      2.1046661687      0.0000000000
1.8545473048           85.8209460848      0.4520000000      12.9152743413      2.1150673494      0.0000000000
1.8623460349           83.3695901166      0.4540000000      12.9136960289      2.1253649722      0.0000000000
1.8700543742           81.0117595907      0.4560000000      12.9119953271      2.1355594484      0.0000000000
1.8776729827           78.7431677633      0.4580000000      12.9101746286      2.1456512064      0.0000000000
1.8852025256           76.5597255349      0.4600000000      12.9082359407      2.1556406879      0.0000000000
1.8926436762           74.4575931300      0.4620000000      12.9061816194      2.1655283514      0.0000000000
1.8999971133           72.4331129122      0.4640000000      12.9040138417      2.1753146694      0.0000000000
1.9072635192           70.4827984941      0.4660000000      12.9017344311      2.1850001245      0.0000000000
1.9144435847           68.6033866417      0.4680000000      12.8993458087      2.1945852173      0.0000000000
1.9215380023           66.7917504988      0.4700000000      12.8968499408      2.2040704572      0.0000000000
1.9285474693           65.0449286121      0.4720000000      12.8942488748      2.2134563658      0.0000000000
1.9354726869           63.3601175423      0.4740000000      12.8915446809      2.2227434767      0.0000000000
1.9423143581           61.7346396328      0.4760000000      12.8887392368      2.2319323319      0.0000000000
1.9490731902           60.1659637526      0.4780000000      12.8858346453      2.2410234855      0.0000000000
1.9557498908           58.6516716268      0.4800000000      12.8828326149      2.2500174987      0.0000000000
1.9623451715           57.1894826892      0.4820000000      12.8797353033      2.2589149438      0.0000000000
1.9688597444           55.7772150324      0.4840000000      12.8765445755      2.2677164006      0.0000000000
1.9752943222           54.4127909067      0.4860000000      12.8732622052      2.2764224558      0.0000000000
1.9816496186           53.0942352161      0.4880000000      12.8698899951      2.2850337038      0.0000000000
1.9879263481           51.8196689905      0.4900000000      12.8664297517      2.2935507459      0.0000000000
1.9941252255           50.5873049999      0.4920000000      12.8628833167      2.3019741906      0.0000000000
2.0002469652           49.3954410155      0.4940000000      12.8592524848      2.3103046520      0.0000000000
2.0062922812           48.2424488622      0.4960000000      12.8555389606      2.3185427495      0.0000000000
2.0122618860           47.1267760349      0.4980000000      12.8517443394      2.3266891066      0.0000000000
2.0181564923           46.0469500263      0.5000000000      12.8478704059      2.3347443538      0.0000000000
2.0239768112           45.0015628737      0.5020000000      12.8439188559      2.3427091246      0.0000000000
2.0297235508           43.9892612250      0.5040000000      12.8398910905      2.3505840554      0.0000000000
2.0353974202           43.0087702537      0.5060000000      12.8357889141      2.3583697890      0.0000000000
2.0409991245           42.0588619015      0.5080000000      12.8316138511      2.3660669695      0.0000000000
2.0465293675           41.1383663808      0.5100000000      12.8273674563      2.3736762445      0.0000000000
2.0519888502           40.2461668275      0.5120000000      12.8230512783      2.3811982643      0.0000000000
2.0573782710           39.3811882312      0.5140000000      12.8186666716      2.3886336806      0.0000000000
2.0626983262           38.5424167914      0.5160000000      12.8142152931      2.3959831489      0.0000000000
2.0679497090           37.7288742743      0.5180000000      12.8096985539      2.4032473254      0.0000000000
2.0731331088           36.9396244873      0.5200000000      12.8051178179      2.4104268672      0.0000000000
2.0782492127           36.1737755093      0.5220000000      12.8004745570      2.4175224338      0.0000000000
2.0832987045           35.4304743261      0.5240000000      12.7957702011      2.4245346852      0.0000000000
