# M(M_sol)                 Lambda          n_Bc(fm^-3)         R(km)            m_B(M_sol)        m_Bquar/M_B
0.1565131190     46498805.3142945170      0.0810000000      23.7701479489      0.1568291521      0.0000000000
0.1639457274     37882066.3055675998      0.0830000000      22.7533584522      0.1643748284      0.0000000000
0.1713893340     31231558.0042798333      0.0850000000      21.9110391883      0.1719393744      0.0000000000
0.1788425846     26004655.5899281949      0.0870000000      21.2023535398      0.1795213338      0.0000000000
0.1863054214     21835506.7142956965      0.0890000000      20.5981857575      0.1871205822      0.0000000000
0.1937787854     18468627.5239183865      0.0910000000      20.0772303118      0.1947380277      0.0000000000
0.2012644018     15720667.9732313100      0.0930000000      19.6235498921      0.2023753939      0.0000000000
0.2087646224     13457069.0022057313      0.0950000000      19.2249920254      0.2100350601      0.0000000000
0.2162823021     11577236.2775991634      0.0970000000      18.8721354454      0.2177199380      0.0000000000
0.2238207024     10004770.1403588448      0.0990000000      18.5575684813      0.2254333726      0.0000000000
0.2313834174      8680848.1050354596      0.1010000000      18.2753849866      0.2331790685      0.0000000000
0.2389743047      7559638.4843495339      0.1030000000      18.0208234074      0.2409610193      0.0000000000
0.2465974380      6605040.6528679943      0.1050000000      17.7900051073      0.2487834600      0.0000000000
0.2542570569      5788355.1267952723      0.1070000000      17.5797417392      0.2566508155      0.0000000000
0.2619575326      5086559.0146078235      0.1090000000      17.3873893277      0.2645676664      0.0000000000
0.2697033308      4481040.3509360943      0.1110000000      17.2107387620      0.2725387111      0.0000000000
0.2774989870      3956643.5596415387      0.1130000000      17.0479314020      0.2805687405      0.0000000000
0.2852637776      3505541.2383802421      0.1150000000      16.8989586428      0.2885746181      0.0000000000
0.2929224177      3119367.8248826768      0.1170000000      16.7634393990      0.2964785115      0.0000000000
0.3005520259      2783894.0524326288      0.1190000000      16.6384514958      0.3043598068      0.0000000000
0.3081769128      2490515.8582964232      0.1210000000      16.5224641227      0.3122435640      0.0000000000
0.3158120997      2232693.5659831888      0.1230000000      16.4143401447      0.3201453205      0.0000000000
0.3234690427      2005207.2294618671      0.1250000000      16.3131687395      0.3280769781      0.0000000000
0.3311573544      1803795.5654613310      0.1270000000      16.2181967277      0.3360485714      0.0000000000
0.3388855367      1624931.3591557983      0.1290000000      16.1287904304      0.3440690213      0.0000000000
0.3466613393      1465665.1245023909      0.1310000000      16.0444106460      0.3521465012      0.0000000000
0.3544919609      1323510.5403655802      0.1330000000      15.9645943570      0.3602886440      0.0000000000
0.3623841663      1196357.0634634111      0.1350000000      15.8889414034      0.3685026609      0.0000000000
0.3703443631      1082402.5444328329      0.1370000000      15.8171041001      0.3767954210      0.0000000000
0.3783786548       980099.7515298204      0.1390000000      15.7487790115      0.3851735039      0.0000000000
0.3864928661       888113.7866652476      0.1410000000      15.6836998177      0.3936432269      0.0000000000
0.3946925721       805288.1039862455      0.1430000000      15.6216324928      0.4022106730      0.0000000000
0.4029831097       730616.1923822439      0.1450000000      15.5623702429      0.4108817038      0.0000000000
0.4113695904       663218.6715155361      0.1470000000      15.5057296038      0.4196619709      0.0000000000
0.4198569058       602324.9839748995      0.1490000000      15.4515479337      0.4285569225      0.0000000000
0.4284497313       547257.1989073394      0.1510000000      15.3996799571      0.4375718059      0.0000000000
0.4371525316       497417.1716103386      0.1530000000      15.3499958599      0.4467116731      0.0000000000
0.4459695553       452275.7193536717      0.1550000000      15.3023790943      0.4559813748      0.0000000000
0.4549048405       411363.2614245450      0.1570000000      15.2567248150      0.4653855660      0.0000000000
0.4639622103       374262.1179057474      0.1590000000      15.2129382806      0.4749287000      0.0000000000
0.4731452726       340599.9952851962      0.1610000000      15.1709338517      0.4846150287      0.0000000000
0.4824574146       310044.1323070725      0.1630000000      15.1306331988      0.4944485957      0.0000000000
0.4919018109       282296.7228201639      0.1650000000      15.0919651849      0.5044332442      0.0000000000
0.5014813908       257090.6559512888      0.1670000000      15.0548645965      0.5145725822      0.0000000000
0.5111988757       234185.9301112713      0.1690000000      15.0192711313      0.5248700207      0.0000000000
0.5210567508       213366.6170420968      0.1710000000      14.9851292071      0.5353287436      0.0000000000
0.5310572677       194438.1147232052      0.1730000000      14.9523870485      0.5459517096      0.0000000000
0.5412024420       177224.9267707668      0.1750000000      14.9209964947      0.5567416480      0.0000000000
0.5514940486       161568.5129250419      0.1770000000      14.8909122045      0.5677010538      0.0000000000
0.5619336237       147325.5298871204      0.1790000000      14.8620914925      0.5788321876      0.0000000000
0.5725224564       134366.2832383590      0.1810000000      14.8344939325      0.5901370667      0.0000000000
0.5832615948       122573.2926336061      0.1830000000      14.8080810650      0.6016174692      0.0000000000
0.5941518368       111840.1103489624      0.1850000000      14.7828160797      0.6132749240      0.0000000000
0.6051937347       102070.1935992868      0.1870000000      14.7586636502      0.6251107136      0.0000000000
0.6163875892        93175.9534683313      0.1890000000      14.7355896716      0.6371258660      0.0000000000
0.6277334617        85077.8753955082      0.1910000000      14.7135611843      0.6493211673      0.0000000000
0.6392311576        77703.7560628145      0.1930000000      14.6925460631      0.6616971413      0.0000000000
0.6508802383        70988.0249002541      0.1950000000      14.6725131320      0.6742540611      0.0000000000
0.6626800205        64871.0755892807      0.1970000000      14.6534317036      0.6869919463      0.0000000000
0.6746295798        59298.7649588437      0.1990000000      14.6352720029      0.6999105653      0.0000000000
0.6867277492        54221.8656782351      0.2010000000      14.6180045537      0.7130094318      0.0000000000
0.6989731265        49595.6326771473      0.2030000000      14.6016004756      0.7262878105      0.0000000000
0.7113640746        45379.3732572676      0.2050000000      14.5860311773      0.7397447157      0.0000000000
0.7238987290        41536.1081992874      0.2070000000      14.5712686376      0.7533789174      0.0000000000
0.7365750005        38032.1933740148      0.2090000000      14.5572850540      0.7671889421      0.0000000000
0.7493905811        34837.0517674335      0.2110000000      14.5440530700      0.7811730767      0.0000000000
0.7623429485        31922.8728609883      0.2130000000      14.5315455327      0.7953293720      0.0000000000
0.7754293748        29264.3683680487      0.2150000000      14.5197357133      0.8096556490      0.0000000000
0.7886469311        26838.5438175016      0.2170000000      14.5085970767      0.8241495030      0.0000000000
0.8019924945        24624.4933480927      0.2190000000      14.4981034953      0.8388083076      0.0000000000
0.8154627572        22603.2054677567      0.2210000000      14.4882291200      0.8536292237      0.0000000000
0.8290542341        20757.3944592082      0.2230000000      14.4789484576      0.8686092050      0.0000000000
0.8427632683        19071.3442127287      0.2250000000      14.4702363023      0.8837450019      0.0000000000
0.8565860433        17530.7620195129      0.2270000000      14.4620678052      0.8990331732      0.0000000000
0.8705185882        16122.6581641293      0.2290000000      14.4544184617      0.9144700890      0.0000000000
0.8845567904        14835.2168247886      0.2310000000      14.4472641991      0.9300519435      0.0000000000
0.8986964021        13657.6973499993      0.2330000000      14.4405813125      0.9457747596      0.0000000000
0.9129330491        12580.3315333359      0.2350000000      14.4343463767      0.9616343966      0.0000000000
0.9272622443        11594.2394340501      0.2370000000      14.4285365929      0.9776265635      0.0000000000
0.9416793930        10691.3442746003      0.2390000000      14.4231294690      0.9937468233      0.0000000000
0.9561798035         9864.3028175665      0.2410000000      14.4181029414      1.0099906024      0.0000000000
0.9707586997         9106.4339795252      0.2430000000      14.4134354514      1.0263532037      0.0000000000
0.9854112271         8411.6640856399      0.2450000000      14.4091059275      1.0428298109      0.0000000000
1.0001324656         7774.4661792068      0.2470000000      14.4050937690      1.0594155019      0.0000000000
1.0149174358         7189.8132258126      0.2490000000      14.4013788376      1.0761052544      0.0000000000
1.0297611123         6653.1311009398      0.2510000000      14.3979415204      1.0928939590      0.0000000000
1.0446584313         6160.2565229915      0.2530000000      14.3947627739      1.1097764274      0.0000000000
1.0596042990         5707.4012228988      0.2550000000      14.3918239544      1.1267473998      0.0000000000
1.0745936027         5291.1171257967      0.2570000000      14.3891070643      1.1438015571      0.0000000000
1.0896212192         4908.2635527995      0.2590000000      14.3865946135      1.1609335294      0.0000000000
1.1046820222         4555.9816857878      0.2610000000      14.3842695843      1.1781379031      0.0000000000
1.1197708932         4231.6664167660      0.2630000000      14.3821155570      1.1954092334      0.0000000000
1.1348827282         3932.9453506205      0.2650000000      14.3801166625      1.2127420505      0.0000000000
1.1500124453         3657.6556748386      0.2670000000      14.3782575063      1.2301308687      0.0000000000
1.1651549944         3403.8264389214      0.2690000000      14.3765232875      1.2475701963      0.0000000000
1.1803053628         3169.6603663534      0.2710000000      14.3748997724      1.2650545424      0.0000000000
1.1954585836         2953.5182312743      0.2730000000      14.3733731833      1.2825784259      0.0000000000
1.2106097410         2753.9045198833      0.2750000000      14.3719303073      1.3001363820      0.0000000000
1.2257539785         2569.4546056109      0.2770000000      14.3705584840      1.3177229715      0.0000000000
1.2408865041         2398.9225805447      0.2790000000      14.3692455697      1.3353327869      0.0000000000
1.2560025958         2241.1706749125      0.2810000000      14.3679799123      1.3529604594      0.0000000000
1.2710976077         2095.1596312353      0.2830000000      14.3667503637      1.3706006659      0.0000000000
1.2861669751         1959.9395206419      0.2850000000      14.3655463051      1.3882481356      0.0000000000
1.3012062183         1834.6422503677      0.2870000000      14.3643575774      1.4058976551      0.0000000000
1.3162109483         1718.4736934770      0.2890000000      14.3631745291      1.4235440755      0.0000000000
1.3311768700         1610.7074332618      0.2910000000      14.3619879742      1.4411823169      0.0000000000
1.3460997859         1510.6786459550      0.2930000000      14.3607892010      1.4588073736      0.0000000000
1.3609755997         1417.7785560814      0.2950000000      14.3595699049      1.4764143192      0.0000000000
1.3758003194         1331.4496694367      0.2970000000      14.3583222820      1.4939983110      0.0000000000
1.3905700594         1251.1810718398      0.2990000000      14.3570389151      1.5115545937      0.0000000000
1.4052810436         1176.5043779667      0.3010000000      14.3557128436      1.5290785042      0.0000000000
1.4199296070         1106.9900520322      0.3030000000      14.3543374925      1.5465654743      0.0000000000
1.4345121973         1042.2440164273      0.3050000000      14.3529066788      1.5640110337      0.0000000000
1.4490253767          981.9044909090      0.3070000000      14.3514145984      1.5814108140      0.0000000000
1.4634658229          925.6392860956      0.3090000000      14.3498558646      1.5987605503      0.0000000000
1.4778303299          873.1431211859      0.3110000000      14.3482253995      1.6160560845      0.0000000000
1.4921158082          824.1356145604      0.3130000000      14.3465185000      1.6332933652      0.0000000000
1.5063192864          778.3586523017      0.3150000000      14.3447307990      1.6504684530      0.0000000000
1.5204379098          735.5749964888      0.3170000000      14.3428582474      1.6675775183      0.0000000000
1.5344689411          695.5661744378      0.3190000000      14.3408971022      1.6846168451      0.0000000000
1.5484097601          658.1310380141      0.3210000000      14.3388439600      1.7015828308      0.0000000000
1.5622578627          623.0842749820      0.3230000000      14.3366956653      1.7184719873      0.0000000000
1.5760108601          590.2550795556      0.3250000000      14.3344493322      1.7352809408      0.0000000000
1.5896664791          559.4859348902      0.3270000000      14.3321024051      1.7520064339      0.0000000000
1.6032225588          530.6314878779      0.3290000000      14.3296525155      1.7686453231      0.0000000000
1.6166770515          503.5576202457      0.3310000000      14.3270976007      1.7851945812      0.0000000000
1.6300280200          478.1404658461      0.3330000000      14.3244357906      1.8016512952      0.0000000000
1.6432736365          454.2655366485      0.3350000000      14.3216654390      1.8180126666      0.0000000000
1.6564121805          431.8270568068      0.3370000000      14.3187851434      1.8342760105      0.0000000000
1.6694420379          410.7271698826      0.3390000000      14.3157936852      1.8504387551      0.0000000000
1.6823616983          390.8753382633      0.3410000000      14.3126900403      1.8664984403      0.0000000000
1.6951697530          372.1877595260      0.3430000000      14.3094733819      1.8824527166      0.0000000000
1.7078648937          354.5867879441      0.3450000000      14.3061430435      1.8982993446      0.0000000000
1.7204459096          338.0005070036      0.3470000000      14.3026985447      1.9140361924      0.0000000000
1.7329116853          322.3622349998      0.3490000000      14.2991395412      1.9296612353      0.0000000000
1.7452611989          307.6101166623      0.3510000000      14.2954658576      1.9451725535      0.0000000000
1.7574935196          293.6867463240      0.3530000000      14.2916774407      1.9605683308      0.0000000000
1.7696078050          280.5388400757      0.3550000000      14.2877743982      1.9758468527      0.0000000000
1.7816032988          268.1169081254      0.3570000000      14.2837569318      1.9910065044      0.0000000000
1.7934793291          256.3749405506      0.3590000000      14.2796254019      2.0060457696      0.0000000000
1.8052353050          245.2701556536      0.3610000000      14.2753802308      2.0209632275      0.0000000000
1.8168707146          234.7627844579      0.3630000000      14.2710219879      2.0357575519      0.0000000000
1.8283851227          224.8157974065      0.3650000000      14.2665513278      2.0504275083      0.0000000000
1.8397781682          215.3947116729      0.3670000000      14.2619689865      2.0649719523      0.0000000000
1.8510495614          206.4674190310      0.3690000000      14.2572757962      2.0793898270      0.0000000000
1.8621990823          198.0039815536      0.3710000000      14.2524726814      2.0936801617      0.0000000000
1.8732265771          189.9765005890      0.3730000000      14.2475606024      2.1078420685      0.0000000000
1.8841319573          182.3589257058      0.3750000000      14.2425406278      2.1218747416      0.0000000000
1.8949151956          175.1269665224      0.3770000000      14.2374138789      2.1357774537      0.0000000000
1.9055763252          168.2579302211      0.3790000000      14.2321815215      2.1495495550      0.0000000000
1.9161154362          161.7306280500      0.3810000000      14.2268448126      2.1631904700      0.0000000000
1.9265326738          155.5252442840      0.3830000000      14.2214049994      2.1766996956      0.0000000000
1.9368282366          149.6232623329      0.3850000000      14.2158634400      2.1900767997      0.0000000000
1.9470023733          144.0073557361      0.3870000000      14.2102214828      2.2033214178      0.0000000000
1.9570553817          138.6613104775      0.3890000000      14.2044805497      2.2164332517      0.0000000000
1.9669876053          133.5699385665      0.3910000000      14.1986420673      2.2294120667      0.0000000000
1.9767994326          128.7190260840      0.3930000000      14.1927075327      2.2422576906      0.0000000000
1.9864912938          124.0952391132      0.3950000000      14.1866784022      2.2549700097      0.0000000000
1.9960636598          119.6860866083      0.3970000000      14.1805562385      2.2675489690      0.0000000000
2.0055170395          115.4798494709      0.3990000000      14.1743425728      2.2799945682      0.0000000000
2.0148519785          111.4655288426      0.4010000000      14.1680389602      2.2923068611      0.0000000000
2.0240690568          107.6328025949      0.4030000000      14.1616469711      2.3044859525      0.0000000000
2.0331688873          103.9719728382      0.4050000000      14.1551682222      2.3165319972      0.0000000000
2.0421521138          100.4739309327      0.4070000000      14.1486043028      2.3284451973      0.0000000000
2.0510194093           97.1301120272      0.4090000000      14.1419568106      2.3402258007      0.0000000000
2.0597714747           93.9324628948      0.4110000000      14.1352273667      2.3518740991      0.0000000000
2.0684090369           90.8734093558      0.4130000000      14.1284175927      2.3633904266      0.0000000000
2.0769328472           87.9458189667      0.4150000000      14.1215291221      2.3747751576      0.0000000000
2.0853436798           85.1429814758      0.4170000000      14.1145635543      2.3860287044      0.0000000000
2.0936423306           82.4585725615      0.4190000000      14.1075225284      2.3971515170      0.0000000000
2.1018296155           79.8866335401      0.4210000000      14.1004076444      2.4081440804      0.0000000000
2.1099063692           77.4215438967      0.4230000000      14.0932205339      2.4190069129      0.0000000000
2.1178734436           75.0580082013      0.4250000000      14.0859627938      2.4297405652      0.0000000000
2.1257317071           72.7910290674      0.4270000000      14.0786360191      2.4403456181      0.0000000000
2.1334820430           70.6158886384      0.4290000000      14.0712418175      2.4508226825      0.0000000000
2.1411253475           68.5281334021      0.4310000000      14.0637817632      2.4611723949      0.0000000000
2.1486625304           66.5235560775      0.4330000000      14.0562574388      2.4713954195      0.0000000000
2.1560945126           64.5981815341      0.4350000000      14.0486703859      2.4814924450      0.0000000000
2.1634222253           62.7482506339      0.4370000000      14.0410221671      2.4914641832      0.0000000000
2.1706466095           60.9702108911      0.4390000000      14.0333143261      2.5013113685      0.0000000000
