# M(M_sol)                 Lambda          n_Bc(fm^-3)         R(km)            m_B(M_sol)        m_Bquar/M_B
0.1526813505     29908489.2833507806      0.1290000000      21.2151620641      0.1529043659      0.0000000000
0.1561036129     26478078.1201740839      0.1310000000      20.6833564577      0.1563738856      0.0000000000
0.1596650398     23426260.0312044583      0.1330000000      20.1834815609      0.1599864265      0.0000000000
0.1633728426     20710953.7204783857      0.1350000000      19.7131560488      0.1637495363      0.0000000000
0.1672341408     18295598.9993618317      0.1370000000      19.2703017956      0.1676706945      0.0000000000
0.1712559520     16148128.1421082970      0.1390000000      18.8530892439      0.1717573040      0.0000000000
0.1754451787     14240188.7940971609      0.1410000000      18.4598935628      0.1760166781      0.0000000000
0.1798085893     12546552.9205862656      0.1430000000      18.0892593888      0.1804560229      0.0000000000
0.1843527996     11044659.1024184655      0.1450000000      17.7398733057      0.1850824199      0.0000000000
0.1890842525      9714259.4274389241      0.1470000000      17.4105399709      0.1899028056      0.0000000000
0.1940091977      8537132.4164996687      0.1490000000      17.1001642665      0.1949239524      0.0000000000
0.1991336789      7496853.1918093460      0.1510000000      16.8077347970      0.2001524561      0.0000000000
0.2044634873      6578617.1158786379      0.1530000000      16.5323145736      0.2055946894      0.0000000000
0.2100041838      5769065.9277701816      0.1550000000      16.2730274609      0.2112568252      0.0000000000
0.2157610556      5056162.4613512577      0.1570000000      16.0290514830      0.2171447925      0.0000000000
0.2217391068      4429069.4263676405      0.1590000000      15.7996129693      0.2232642676      0.0000000000
0.2279430435      3878045.1695038932      0.1610000000      15.5839801715      0.2296206585      0.0000000000
0.2343772612      3394345.0647711442      0.1630000000      15.3814591062      0.2362190926      0.0000000000
0.2410458327      2970137.8300397950      0.1650000000      15.1913904432      0.2430644034      0.0000000000
0.2479524979      2598420.5848647249      0.1670000000      15.0131458322      0.2501611202      0.0000000000
0.2551006511      2272948.8597133509      0.1690000000      14.8461267969      0.2575134548      0.0000000000
0.2624933458      1988162.3100189054      0.1710000000      14.6897614155      0.2651253050      0.0000000000
0.2701332703      1739122.3996254376      0.1730000000      14.5435037602      0.2730002292      0.0000000000
0.2780227539      1521451.3218027723      0.1750000000      14.4068320495      0.2811414515      0.0000000000
0.2861637603      1331276.1369287516      0.1770000000      14.2792476455      0.2895518537      0.0000000000
0.2945578843      1165177.2364684618      0.1790000000      14.1602740381      0.2982339702      0.0000000000
0.3032063502      1020140.4049760039      0.1810000000      14.0494558111      0.3071899855      0.0000000000
0.3121100111       893513.8365693754      0.1830000000      13.9463580539      0.3164217307      0.0000000000
0.3212693486       782967.8024650431      0.1850000000      13.8505655460      0.3259306822      0.0000000000
0.3306844752       686458.6163198513      0.1870000000      13.7616818245      0.3357179609      0.0000000000
0.3403551351       602196.0239377680      0.1890000000      13.6793287941      0.3457843322      0.0000000000
0.3502807083       528613.4723734987      0.1910000000      13.6031457373      0.3561302069      0.0000000000
0.3604602140       464341.8399387847      0.1930000000      13.5327889562      0.3667556423      0.0000000000
0.3708923159       408185.6852416091      0.1950000000      13.4679312600      0.3776603453      0.0000000000
0.3815753275       359101.9095275619      0.1970000000      13.4082608726      0.3888436750      0.0000000000
0.3925072185       316181.1956306602      0.1990000000      13.3534811688      0.4003046466      0.0000000000
0.4036856219       278631.2052153710      0.2010000000      13.3033100194      0.4120419356      0.0000000000
0.4151078422       245761.9616827350      0.2030000000      13.2574791893      0.4240538836      0.0000000000
0.4267708638       216972.8114850671      0.2050000000      13.2157337211      0.4363385036      0.0000000000
0.4386713600       191741.0341262940      0.2070000000      13.1778313972      0.4488934868      0.0000000000
0.4508057033       169611.8323434308      0.2090000000      13.1435422560      0.4617162096      0.0000000000
0.4631699751       150189.5496688719      0.2110000000      13.1126479884      0.4748037409      0.0000000000
0.4757599772       133129.9719868055      0.2130000000      13.0849413725      0.4881528505      0.0000000000
0.4885712428       118133.6477398373      0.2150000000      13.0602258418      0.5017600182      0.0000000000
0.5015990488       104940.0356262830      0.2170000000      13.0383150360      0.5156214425      0.0000000000
0.5148384275        93322.3920254897      0.2190000000      13.0190321943      0.5297330504      0.0000000000
0.5282841797        83083.3423943658      0.2210000000      13.0022098060      0.5440905079      0.0000000000
0.5419308872        74051.0285424325      0.2230000000      12.9876891481      0.5586892300      0.0000000000
0.5557729265        66075.7457661285      0.2250000000      12.9753198052      0.5735243919      0.0000000000
0.5698044817        59027.0358701234      0.2270000000      12.9649593226      0.5885909400      0.0000000000
0.5840195583        52791.1651514751      0.2290000000      12.9564728827      0.6038836035      0.0000000000
0.5984119971        47268.9169289885      0.2310000000      12.9497328093      0.6193969063      0.0000000000
0.6129754876        42373.6945287833      0.2330000000      12.9446182003      0.6351251786      0.0000000000
0.6277035821        38029.8750729560      0.2350000000      12.9410147177      0.6510625690      0.0000000000
0.6425897097        34171.3746349158      0.2370000000      12.9388142458      0.6672030574      0.0000000000
0.6576271894        30740.4022089841      0.2390000000      12.9379144360      0.6835404662      0.0000000000
0.6728092443        27686.3871744248      0.2410000000      12.9382185561      0.7000684738      0.0000000000
0.6881290151        24965.0455516306      0.2430000000      12.9396351609      0.7167806263      0.0000000000
0.7035795736        22537.5674491258      0.2450000000      12.9420778381      0.7336703504      0.0000000000
0.7191539352        20369.9145412916      0.2470000000      12.9454649361      0.7507309653      0.0000000000
0.7348450726        18432.2097736686      0.2490000000      12.9497193384      0.7679556949      0.0000000000
0.7506459279        16698.2072828527      0.2510000000      12.9547682382      0.7853376805      0.0000000000
0.7665494308        15144.8316434075      0.2530000000      12.9605429224      0.8028699983      0.0000000000
0.7825484881        13751.7777156331      0.2550000000      12.9669785019      0.8205456472      0.0000000000
0.7986360290        12501.1619779777      0.2570000000      12.9740138100      0.8383575966      0.0000000000
0.8148049934        11377.2216296365      0.2590000000      12.9815912017      0.8562987733      0.0000000000
0.8310483493        10366.0490829047      0.2610000000      12.9896563261      0.8743620794      0.0000000000
0.8473591027         9455.3627434536      0.2630000000      12.9981579351      0.8925404023      0.0000000000
0.8637303073         8634.3081533870      0.2650000000      13.0070478135      0.9108266258      0.0000000000
0.8801550748         7893.2829360009      0.2670000000      13.0162806078      0.9292136398      0.0000000000
0.8966265831         7223.7839751587      0.2690000000      13.0258136040      0.9476943503      0.0000000000
0.9131380860         6618.2755002385      0.2710000000      13.0356066754      0.9662616897      0.0000000000
0.9296829197         6070.0721709621      0.2730000000      13.0456221001      0.9849086240      0.0000000000
0.9462545122         5573.2380146704      0.2750000000      13.0558244400      1.0036281636      0.0000000000
0.9628463896         5122.4975161546      0.2770000000      13.0661804819      1.0224133707      0.0000000000
0.9794521826         4713.1575635721      0.2790000000      13.0766590713      1.0412573672      0.0000000000
0.9960656333         4341.0390931462      0.2810000000      13.0872309899      1.0601533428      0.0000000000
1.0126806006         4002.4178793720      0.2830000000      13.0978689091      1.0790945617      0.0000000000
1.0292910653         3693.9715674361      0.2850000000      13.1085472596      1.0980743695      0.0000000000
1.0458911354         3412.7333569784      0.2870000000      13.1192421198      1.1170861997      0.0000000000
1.0624750499         3156.0518274839      0.2890000000      13.1299311719      1.1361235798      0.0000000000
1.0790371833         2921.5552518509      0.2910000000      13.1405936391      1.1551801365      0.0000000000
1.0955720484         2707.1199033873      0.2930000000      13.1512101280      1.1742496012      0.0000000000
1.1120742999         2510.8424248813      0.2950000000      13.1617626063      1.1933258145      0.0000000000
1.1285387366         2331.0154546341      0.2970000000      13.1722343084      1.2124027309      0.0000000000
1.1449603042         2166.1059944810      0.2990000000      13.1826097118      1.2314744229      0.0000000000
1.1613340964         2014.7364440736      0.3010000000      13.1928744080      1.2505350841      0.0000000000
1.1776553571         1875.6676561931      0.3030000000      13.2030150983      1.2695790331      0.0000000000
1.1939194809         1747.7839977129      0.3050000000      13.2130194913      1.2886007160      0.0000000000
1.2101220143         1630.0801958302      0.3070000000      13.2228762693      1.3075947093      0.0000000000
1.2262586561         1521.6496203826      0.3090000000      13.2325750644      1.3265557218      0.0000000000
1.2423252573         1421.6738520319      0.3110000000      13.2421063385      1.3454785971      0.0000000000
1.2583178214         1329.4134617127      0.3130000000      13.2514614149      1.3643583147      0.0000000000
1.2742325035         1244.1997650676      0.3150000000      13.2606323324      1.3831899913      0.0000000000
1.2900656099         1165.4275769909      0.3170000000      13.2696119012      1.4019688824      0.0000000000
1.3058135970         1092.5488196029      0.3190000000      13.2783936602      1.4206903823      0.0000000000
1.3214730705         1025.0664626342      0.3210000000      13.2869717138      1.4393500254      0.0000000000
1.3370407835          962.5296031458      0.3230000000      13.2953408437      1.4579434854      0.0000000000
1.3525136353          904.5287432488      0.3250000000      13.3034964023      1.4764665765      0.0000000000
1.3678886697          850.6917031344      0.3270000000      13.3114342658      1.4949152524      0.0000000000
1.3831630726          800.6799249499      0.3290000000      13.3191508468      1.5132856058      0.0000000000
1.3983341706          754.1852486249      0.3310000000      13.3266430324      1.5315738683      0.0000000000
1.4133994281          710.9268513732      0.3330000000      13.3339081567      1.5497764090      0.0000000000
1.4283564455          670.6487033969      0.3350000000      13.3409439937      1.5678897340      0.0000000000
1.4432029571          633.1171571241      0.3370000000      13.3477487091      1.5859104857      0.0000000000
1.4579368257          598.1188232028      0.3390000000      13.3543208387      1.6038354382      0.0000000000
1.4725560445          565.4587056094      0.3410000000      13.3606593039      1.6216615006      0.0000000000
1.4870587310          534.9583779318      0.3430000000      13.3667633161      1.6393857128      0.0000000000
1.5014431254          506.4545747312      0.3450000000      13.3726324316      1.6570052438      0.0000000000
1.5157075876          479.7976897216      0.3470000000      13.3782664449      1.6745173901      0.0000000000
1.5298505939          454.8506037296      0.3490000000      13.3836654796      1.6919195740      0.0000000000
1.5438707347          431.4874900471      0.3510000000      13.3888298821      1.7092093413      0.0000000000
1.5577667107          409.5928456283      0.3530000000      13.3937602382      1.7263843590      0.0000000000
1.5715373307          389.0605185405      0.3550000000      13.3984573237      1.7434424137      0.0000000000
1.5851815078          369.7929488179      0.3570000000      13.4029221739      1.7603814086      0.0000000000
1.5986982571          351.7003473785      0.3590000000      13.4071559824      1.7771993619      0.0000000000
1.6120866921          334.7000309847      0.3610000000      13.4111600898      1.7938944036      0.0000000000
1.6253460217          318.7158450659      0.3630000000      13.4149360551      1.8104647740      0.0000000000
1.6384755475          303.6775467425      0.3650000000      13.4184855432      1.8269088204      0.0000000000
1.6514746605          289.5203527510      0.3670000000      13.4218103848      1.8432249950      0.0000000000
1.6643428382          276.1844128778      0.3690000000      13.4249124922      1.8594118525      0.0000000000
1.6770796418          263.6144676806      0.3710000000      13.4277939579      1.8754680477      0.0000000000
1.6896847128          251.7594101751      0.3730000000      13.4304569306      1.8913923322      0.0000000000
1.7021577706          240.5719707471      0.3750000000      13.4329036815      1.9071835525      0.0000000000
1.7144986093          230.0083798393      0.3770000000      13.4351365432      1.9228406474      0.0000000000
1.7267070953          220.0280971115      0.3790000000      13.4371579626      1.9383626456      0.0000000000
1.7387831639          210.5935578605      0.3810000000      13.4389704331      1.9537486623      0.0000000000
1.7507268170          201.6699015217      0.3830000000      13.4405765192      1.9689978979      0.0000000000
1.7625381205          193.2247954616      0.3850000000      13.4419788444      1.9841096347      0.0000000000
1.7742172013          185.2281996669      0.3870000000      13.4431800804      1.9990832344      0.0000000000
1.7857642450          177.6522116383      0.3890000000      13.4441829479      2.0139181360      0.0000000000
1.7971794931          170.4708876529      0.3910000000      13.4449902087      2.0286138532      0.0000000000
1.8084632410          163.6600839048      0.3930000000      13.4456046302      2.0431699719      0.0000000000
1.8196158354          157.1973362464      0.3950000000      13.4460290533      2.0575861481      0.0000000000
1.8306376715          151.0617224336      0.3970000000      13.4462663115      2.0718621050      0.0000000000
1.8415291913          145.2337361933      0.3990000000      13.4463192593      2.0859976310      0.0000000000
1.8522908810          139.6951970669      0.4010000000      13.4461907795      2.0999925778      0.0000000000
1.8629232692          134.4291402216      0.4030000000      13.4458837570      2.1138468575      0.0000000000
1.8734269243          129.4197302956      0.4050000000      13.4454010769      2.1275604406      0.0000000000
1.8838024529          124.6521733693      0.4070000000      13.4447456372      2.1411333541      0.0000000000
1.8940504973          120.1126509639      0.4090000000      13.4439203418      2.1545656789      0.0000000000
1.9041717341          115.7882346064      0.4110000000      13.4429280693      2.1678575484      0.0000000000
1.9141668720          111.6668398257      0.4130000000      13.4417717185      2.1810091456      0.0000000000
1.9240366500          107.7371471230      0.4150000000      13.4404541654      2.1940207019      0.0000000000
1.9337818358          103.9885601190      0.4170000000      13.4389782784      2.2068924944      0.0000000000
1.9434032237          100.4111501258      0.4190000000      13.4373469138      2.2196248449      0.0000000000
1.9529016335           96.9956078187      0.4210000000      13.4355629128      2.2322181170      0.0000000000
1.9622779084           93.7332047831      0.4230000000      13.4336290998      2.2446727152      0.0000000000
1.9715329140           90.6157464147      0.4250000000      13.4315482755      2.2569890826      0.0000000000
1.9806675361           87.6355424454      0.4270000000      13.4293232310      2.2691676990      0.0000000000
1.9896826799           84.7853715098      0.4290000000      13.4269567285      2.2812090799      0.0000000000
1.9985792681           82.0584417283      0.4310000000      13.4244515031      2.2931137744      0.0000000000
2.0073582404           79.4483714410      0.4330000000      13.4218102715      2.3048823636      0.0000000000
2.0160205508           76.9491575283      0.4350000000      13.4190357302      2.3165154590      0.0000000000
2.0245671681           74.5551503131      0.4370000000      13.4161305414      2.3280137015      0.0000000000
2.0329990731           72.2610295376      0.4390000000      13.4130973348      2.3393777592      0.0000000000
2.0413172587           70.0617846172      0.4410000000      13.4099387210      2.3506083264      0.0000000000
2.0495227281           67.9526948108      0.4430000000      13.4066572813      2.3617061223      0.0000000000
2.0576164936           65.9293090273      0.4450000000      13.4032555599      2.3726718893      0.0000000000
2.0655995765           63.9874283298      0.4470000000      13.3997360828      2.3835063921      0.0000000000
2.0734730052           62.1230903336      0.4490000000      13.3961013185      2.3942104161      0.0000000000
2.0812378148           60.3325577877      0.4510000000      13.3923537454      2.4047847668      0.0000000000
2.0888950458           58.6122950356      0.4530000000      13.3884957659      2.4152302674      0.0000000000
2.0964457439           56.9589687943      0.4550000000      13.3845297881      2.4255477593      0.0000000000
2.1038909583           55.3694239478      0.4570000000      13.3804581631      2.4357380994      0.0000000000
2.1112317417           53.8406781789      0.4590000000      13.3762832190      2.4458021601      0.0000000000
2.1184691492           52.3699098974      0.4610000000      13.3720072464      2.4557408280      0.0000000000
2.1256042377           50.9544504884      0.4630000000      13.3676325144      2.4655550029      0.0000000000
2.1326380652           49.5917710912      0.4650000000      13.3631612322      2.4752455966      0.0000000000
2.1395716901           48.2794786758      0.4670000000      13.3585956147      2.4848135322      0.0000000000
2.1464061705           47.0153050626      0.4690000000      13.3539378030      2.4942597434      0.0000000000
2.1531425640           45.7971007388      0.4710000000      13.3491899406      2.5035851732      0.0000000000
2.1597819267           44.6228274790      0.4730000000      13.3443541149      2.5127907733      0.0000000000
2.1663253132           43.4905513091      0.4750000000      13.3394323878      2.5218775036      0.0000000000
2.1727737751           42.3984381402      0.4770000000      13.3344267885      2.5308463307      0.0000000000
2.1791283621           41.3447466496      0.4790000000      13.3293393199      2.5396982280      0.0000000000
2.1853901200           40.3278216414      0.4810000000      13.3241719266      2.5484341746      0.0000000000
2.1915600912           39.3460940919      0.4830000000      13.3189265586      2.5570551542      0.0000000000
2.1976393140           38.3980695499      0.4850000000      13.3136051058      2.5655621554      0.0000000000
2.2036288221           37.4823297116      0.4870000000      13.3082094369      2.5739561700      0.0000000000
