# M(M_sol)                 Lambda          n_Bc(fm^-3)         R(km)            m_B(M_sol)        m_Bquar/M_B
0.1526499791     34263198.1494276375      0.1250000000      21.9003870541      0.1528733859      0.0000000000
0.1555677536     30832410.2430097200      0.1270000000      21.4056799899      0.1558315810      0.0000000000
0.1586139351     27703107.7869047187      0.1290000000      20.9322884724      0.1589213715      0.0000000000
0.1617984750     24850030.1580673009      0.1310000000      20.4789669966      0.1621530371      0.0000000000
0.1651312581     22251207.8319693021      0.1330000000      20.0447161222      0.1655368172      0.0000000000
0.1686221088     19887152.5297240205      0.1350000000      19.6287244759      0.1690829192      0.0000000000
0.1722807836     17740242.5467333682      0.1370000000      19.2303250375      0.1728015129      0.0000000000
0.1761169482     15794345.2569149937      0.1390000000      18.8489614657      0.1767027094      0.0000000000
0.1801401466     14034462.4513186906      0.1410000000      18.4841578479      0.1807965318      0.0000000000
0.1843597682     12446521.5160307139      0.1430000000      18.1354959198      0.1850928835      0.0000000000
0.1887850088     11017252.4653481562      0.1450000000      17.8025975457      0.1896015107      0.0000000000
0.1934248332      9734062.9041446596      0.1470000000      17.4851083938      0.1943319663      0.0000000000
0.1982879388      8584988.9379981849      0.1490000000      17.1826859106      0.1992935741      0.0000000000
0.2033827236      7558674.2882954404      0.1510000000      16.8949910995      0.2044953985      0.0000000000
0.2087172289      6644353.0277282707      0.1530000000      16.6216819807      0.2099461864      0.0000000000
0.2142991419      5831847.3687580051      0.1550000000      16.3624067448      0.2156543716      0.0000000000
0.2201357461      5111578.0180050703      0.1570000000      16.1168033105      0.2216280256      0.0000000000
0.2262338970      4474567.8492503148      0.1590000000      15.8844961216      0.2278748322      0.0000000000
0.2326000015      3912447.9227535618      0.1610000000      15.6650964884      0.2344020674      0.0000000000
0.2392399985      3417456.5207578787      0.1630000000      15.4582029716      0.2412165800      0.0000000000
0.2461593405      2982434.5739362724      0.1650000000      15.2634029572      0.2483247720      0.0000000000
0.2533629825      2600812.1832409040      0.1670000000      15.0802738422      0.2557325866      0.0000000000
0.2608553690      2266594.7155012744      0.1690000000      14.9083859176      0.2634454948      0.0000000000
0.2686404242      1974337.4241729288      0.1710000000      14.7473040125      0.2714684832      0.0000000000
0.2767215582      1719120.3000627933      0.1730000000      14.5965903856      0.2798060598      0.0000000000
0.2851016450      1496517.9385285226      0.1750000000      14.4558067310      0.2884622294      0.0000000000
0.2937830339      1302566.7500613912      0.1770000000      14.3245166822      0.2974405031      0.0000000000
0.3027675459      1133731.5530477471      0.1790000000      14.2022878003      0.3067438924      0.0000000000
0.3120564772       986870.8190817954      0.1810000000      14.0886935057      0.3163749105      0.0000000000
0.3216506022       859202.5978753750      0.1830000000      13.9833146554      0.3263355723      0.0000000000
0.3315501776       748271.5008469910      0.1850000000      13.8857411640      0.3366273960      0.0000000000
0.3417549505       651916.4685346892      0.1870000000      13.7955733658      0.3472514075      0.0000000000
0.3522641654       568240.4511528604      0.1890000000      13.7124226548      0.3582081448      0.0000000000
0.3630765727       495582.2980969289      0.1910000000      13.6359127033      0.3694976630      0.0000000000
0.3741904370       432490.3839325150      0.1930000000      13.5656796825      0.3811195385      0.0000000000
0.3856035508       377698.6806260915      0.1950000000      13.5013731565      0.3930728800      0.0000000000
0.3973132440       330104.8139945623      0.1970000000      13.4426560428      0.4053563337      0.0000000000
0.4093163946       288750.3031976642      0.1990000000      13.3892047913      0.4179680901      0.0000000000
0.4216094467       252802.8564616316      0.2010000000      13.3407096450      0.4309058988      0.0000000000
0.4341884190       221540.4900363480      0.2030000000      13.2968742537      0.4441670722      0.0000000000
0.4470489242       194337.5173013482      0.2050000000      13.2574158368      0.4577485015      0.0000000000
0.4601861812       170652.0010238888      0.2070000000      13.2220645182      0.4716466653      0.0000000000
0.4735950323       150014.9577033813      0.2090000000      13.1905636822      0.4858576423      0.0000000000
0.4872699591       132020.5473714689      0.2110000000      13.1626688144      0.5003771236      0.0000000000
0.5012051011       116317.8236749623      0.2130000000      13.1381480073      0.5152004274      0.0000000000
0.5153942721       102603.2402630140      0.2150000000      13.1167807645      0.5303225123      0.0000000000
0.5298309772        90614.3563195596      0.2170000000      13.0983581776      0.5457379898      0.0000000000
0.5445084337        80124.2015708762      0.2190000000      13.0826821332      0.5614411423      0.0000000000
0.5594195882        70936.4737543014      0.2210000000      13.0695650072      0.5774259370      0.0000000000
0.5745571354        62881.3667743966      0.2230000000      13.0588293291      0.5936860410      0.0000000000
0.5899135383        55811.9280161239      0.2250000000      13.0503071620      0.6102148389      0.0000000000
0.6054810456        49600.9415062561      0.2270000000      13.0438396741      0.6270054472      0.0000000000
0.6212517130        44138.2306354509      0.2290000000      13.0392769203      0.6440507327      0.0000000000
0.6372174224        39328.3183830717      0.2310000000      13.0364772583      0.6613433302      0.0000000000
0.6533698993        35088.4222889637      0.2330000000      13.0353069742      0.6788756564      0.0000000000
0.6697007335        31346.7199752486      0.2350000000      13.0356399233      0.6966399296      0.0000000000
0.6862013978        28040.8548552148      0.2370000000      13.0373571229      0.7146281862      0.0000000000
0.7028632664        25116.6498262719      0.2390000000      13.0403464535      0.7328322973      0.0000000000
0.7196776344        22526.9982985620      0.2410000000      13.0445022634      0.7512439876      0.0000000000
0.7366357330        20230.9075352091      0.2430000000      13.0497249971      0.7698548487      0.0000000000
0.7537287515        18192.6760523743      0.2450000000      13.0559210139      0.7886563611      0.0000000000
0.7709478510        16381.1836038872      0.2470000000      13.0630021274      0.8076399063      0.0000000000
0.7882841883        14769.2783315682      0.2490000000      13.0708854592      0.8267967920      0.0000000000
0.8057289098        13333.2510109954      0.2510000000      13.0794930246      0.8461182424      0.0000000000
0.8232731999        12052.3762587408      0.2530000000      13.0887515691      0.8655954513      0.0000000000
0.8409082743        10908.5220102595      0.2550000000      13.0985922974      0.8852195724      0.0000000000
0.8586254007         9885.8071553124      0.2570000000      13.1089506283      0.9049817415      0.0000000000
0.8764159116         8970.3121368018      0.2590000000      13.1197659886      0.9248730901      0.0000000000
0.8942712182         8149.8205161471      0.2610000000      13.1309815444      0.9448847603      0.0000000000
0.9121828221         7413.6021696805      0.2630000000      13.1425440633      0.9650079169      0.0000000000
0.9301423284         6752.2219498355      0.2650000000      13.1544037051      0.9852337625      0.0000000000
0.9481414555         6157.3749306366      0.2670000000      13.1665137776      1.0055535485      0.0000000000
0.9661720465         5621.7438596585      0.2690000000      13.1788306957      1.0259585882      0.0000000000
0.9842260785         5138.8744978162      0.2710000000      13.1913136510      1.0464402673      0.0000000000
1.0022956717         4703.0680765787      0.2730000000      13.2039245969      1.0669900556      0.0000000000
1.0203730972         4309.2880733922      0.2750000000      13.2166280303      1.0875995163      0.0000000000
1.0384507857         3953.0778298095      0.2770000000      13.2293908619      1.1082603170      0.0000000000
1.0565213337         3630.4902019525      0.2790000000      13.2421822999      1.1289642378      0.0000000000
1.0745775098         3338.0255514255      0.2810000000      13.2549736812      1.1497031802      0.0000000000
1.0926122602         3072.5776357929      0.2830000000      13.2677384066      1.1704691752      0.0000000000
1.1106187142         2831.3866734740      0.2850000000      13.2804518092      1.1912543902      0.0000000000
1.1285901877         2611.9979654146      0.2870000000      13.2930910141      1.2120511361      0.0000000000
1.1465201879         2412.2262962620      0.2890000000      13.3056348920      1.2328518738      0.0000000000
1.1644024153         2230.1238331846      0.2910000000      13.3180639180      1.2536492192      0.0000000000
1.1822307671         2063.9528746776      0.2930000000      13.3303600658      1.2744359485      0.0000000000
1.1999993392         1912.1615955816      0.2950000000      13.3425068136      1.2952050035      0.0000000000
1.2177024267         1773.3626411365      0.2970000000      13.3544889451      1.3159494942      0.0000000000
1.2353345261         1646.3144772482      0.2990000000      13.3662925579      1.3366627038      0.0000000000
1.2528903351         1529.9049689324      0.3010000000      13.3779049226      1.3573380907      0.0000000000
1.2703647530         1423.1369216968      0.3030000000      13.3893144763      1.3779692922      0.0000000000
1.2877528799         1325.1152671342      0.3050000000      13.4005107061      1.3985501249      0.0000000000
1.3050500164         1235.0358407730      0.3070000000      13.4114841141      1.4190745881      0.0000000000
1.3222516622         1152.1754457553      0.3090000000      13.4222261527      1.4395368642      0.0000000000
1.3393535146         1075.8830314607      0.3110000000      13.4327291618      1.4599313198      0.0000000000
1.3563514666         1005.5720257290      0.3130000000      13.4429862959      1.4802525056      0.0000000000
1.3732416051          940.7133464249      0.3150000000      13.4529915275      1.5004951578      0.0000000000
1.3900202082          880.8293527415      0.3170000000      13.4627395416      1.5206541964      0.0000000000
1.4066837425          825.4884684385      0.3190000000      13.4722257240      1.5407247254      0.0000000000
1.4232288602          774.3003173700      0.3210000000      13.4814460977      1.5607020322      0.0000000000
1.4396523964          726.9115404356      0.3230000000      13.4903973176      1.5805815860      0.0000000000
1.4559513652          683.0019305998      0.3250000000      13.4990765777      1.6003590362      0.0000000000
1.4721229566          642.2810943709      0.3270000000      13.5074816202      1.6200302115      0.0000000000
1.4881645333          604.4854329589      0.3290000000      13.5156106701      1.6395911181      0.0000000000
1.5040736244          569.3754398943      0.3310000000      13.5234624208      1.6590379346      0.0000000000
1.5198479255          536.7333523394      0.3330000000      13.5310360116      1.6783670146      0.0000000000
1.5354852922          506.3609677182      0.3350000000      13.5383309644      1.6975748814      0.0000000000
1.5509837359          478.0777165635      0.3370000000      13.5453471614      1.7166582247      0.0000000000
1.5663414212          451.7190289871      0.3390000000      13.5520848811      1.7356139002      0.0000000000
1.5815566601          427.1347134205      0.3410000000      13.5585446938      1.7544389242      0.0000000000
1.5966279088          404.1876220719      0.3430000000      13.5647274649      1.7731304723      0.0000000000
1.6115537629          382.7524045719      0.3450000000      13.5706343496      1.7916858753      0.0000000000
1.6263329533          362.7144152816      0.3470000000      13.5762667506      1.8101026165      0.0000000000
1.6409643420          343.9686913128      0.3490000000      13.5816263068      1.8283783280      0.0000000000
1.6554469181          326.4190844687      0.3510000000      13.5867148985      1.8465107877      0.0000000000
1.6697797926          309.9774203455      0.3530000000      13.5915345744      1.8644979156      0.0000000000
1.6839621951          294.5628155579      0.3550000000      13.5960875826      1.8823377701      0.0000000000
1.6979934693          280.1009730143      0.3570000000      13.6003763409      1.9000285451      0.0000000000
1.7118730686          266.5236261008      0.3590000000      13.6044033966      1.9175685657      0.0000000000
1.7256005523          253.7679862863      0.3610000000      13.6081714810      1.9349562855      0.0000000000
1.7391755813          241.7762694796      0.3630000000      13.6116834159      1.9521902818      0.0000000000
1.7525979143          230.4952457522      0.3650000000      13.6149421307      1.9692692536      0.0000000000
1.7658674038          219.8758669927      0.3670000000      13.6179507088      1.9861920168      0.0000000000
1.7789839921          209.8728741010      0.3690000000      13.6207122640      2.0029575009      0.0000000000
1.7919477075          200.4445109075      0.3710000000      13.6232300253      2.0195647457      0.0000000000
1.8047586606          191.5521850910      0.3730000000      13.6255072731      2.0360128976      0.0000000000
1.8174170411          183.1602471243      0.3750000000      13.6275473884      2.0523012068      0.0000000000
1.8299231133          175.2357125694      0.3770000000      13.6293537667      2.0684290221      0.0000000000
1.8422772135          167.7480508689      0.3790000000      13.6309298684      2.0843957900      0.0000000000
1.8544797459          160.6689834369      0.3810000000      13.6322791860      2.1002010488      0.0000000000
1.8665311800          153.9723090269      0.3830000000      13.6334052567      2.1158444271      0.0000000000
1.8784320468          147.6337210333      0.3850000000      13.6343116309      2.1313256399      0.0000000000
1.8901829357          141.6306644217      0.3870000000      13.6350018840      2.1466444851      0.0000000000
1.9017844917          135.9421938182      0.3890000000      13.6354796085      2.1618008408      0.0000000000
1.9132374124          130.5488524717      0.3910000000      13.6357484032      2.1767946620      0.0000000000
1.9245424449          125.4325373581      0.3930000000      13.6358118643      2.1916259776      0.0000000000
1.9357003833          120.5764163057      0.3950000000      13.6356735945      2.2062948874      0.0000000000
1.9467120658          115.9648187093      0.3970000000      13.6353372015      2.2208015594      0.0000000000
1.9575783721          111.5831454526      0.3990000000      13.6348062716      2.2351462263      0.0000000000
1.9683002210          107.4177901983      0.4010000000      13.6340843906      2.2493291837      0.0000000000
1.9788785676          103.4560655142      0.4030000000      13.6331751080      2.2633507863      0.0000000000
1.9893144018           99.6861290166      0.4050000000      13.6320819790      2.2772114466      0.0000000000
1.9996087449           96.0969276598      0.4070000000      13.6308085263      2.2909116307      0.0000000000
2.0097626482           92.6781325986      0.4090000000      13.6293582593      2.3044518570      0.0000000000
2.0197771906           89.4200905925      0.4110000000      13.6277346337      2.3178326935      0.0000000000
2.0296534766           86.3137754494      0.4130000000      13.6259411135      2.3310547551      0.0000000000
2.0393926346           83.3507381850      0.4150000000      13.6239811150      2.3441187015      0.0000000000
2.0489958144           80.5230715531      0.4170000000      13.6218580260      2.3570252349      0.0000000000
2.0584641861           77.8233615350      0.4190000000      13.6195751832      2.3697750980      0.0000000000
2.0677989379           75.2446677679      0.4210000000      13.6171359150      2.3823690714      0.0000000000
2.0770012747           72.7804782536      0.4230000000      13.6145435003      2.3948079723      0.0000000000
2.0860724164           70.4246820138      0.4250000000      13.6118011809      2.4070926521      0.0000000000
2.0950135963           68.1715453374      0.4270000000      13.6089121664      2.4192239939      0.0000000000
2.1038260598           66.0156812682      0.4290000000      13.6058796196      2.4312029119      0.0000000000
2.1125110631           63.9520283378      0.4310000000      13.6027066659      2.4430303488      0.0000000000
2.1210698714           61.9758292252      0.4330000000      13.5993963884      2.4547072737      0.0000000000
2.1295037581           60.0826094056      0.4350000000      13.5959518318      2.4662346814      0.0000000000
2.1378140034           58.2681554801      0.4370000000      13.5923759884      2.4776135900      0.0000000000
2.1460018933           56.5285035145      0.4390000000      13.5886718211      2.4888450400      0.0000000000
2.1540687183           54.8599200253      0.4410000000      13.5848422484      2.4999300920      0.0000000000
2.1620157724           53.2588863409      0.4430000000      13.5808901472      2.5108698260      0.0000000000
2.1698443519           51.7220819265      0.4450000000      13.5768183213      2.5216653392      0.0000000000
2.1775557552           50.2463802280      0.4470000000      13.5726295807      2.5323177456      0.0000000000
2.1851512808           48.8288272574      0.4490000000      13.5683266566      2.5428281738      0.0000000000
2.1926322274           47.4666354384      0.4510000000      13.5639122471      2.5531977666      0.0000000000
2.1999998926           46.1571717447      0.4530000000      13.5593890072      2.5634276790      0.0000000000
2.2072555724           44.8979489365      0.4550000000      13.5547595456      2.5735190778      0.0000000000
2.2144005598           43.6866143250      0.4570000000      13.5500264259      2.5834731393      0.0000000000
2.2214361454           42.5209460509      0.4590000000      13.5451921806      2.5932910502      0.0000000000
2.2283636155           41.3988379462      0.4610000000      13.5402592806      2.6029740047      0.0000000000
2.2351842517           40.3183005039      0.4630000000      13.5352301710      2.6125232039      0.0000000000
2.2418993316           39.2774474016      0.4650000000      13.5301072447      2.6219398565      0.0000000000
2.2485101260           38.2744930590      0.4670000000      13.5248928515      2.6312251750      0.0000000000
2.2550179006           37.3077448520      0.4690000000      13.5195893049      2.6403803778      0.0000000000
2.2614239142           36.3755995331      0.4710000000      13.5141988764      2.6494066863      0.0000000000
2.2677294187           35.4765334879      0.4730000000      13.5087237873      2.6583053251      0.0000000000
2.2739356584           34.6091052554      0.4750000000      13.5031662404      2.6670775208      0.0000000000
2.2800438700           33.7719431563      0.4770000000      13.4975283603      2.6757245019      0.0000000000
2.2860552822           32.9637480985      0.4790000000      13.4918122728      2.6842474973      0.0000000000
2.2919711150           32.1832838183      0.4810000000      13.4860200456      2.6926477363      0.0000000000
2.2977925796           31.4293764466      0.4830000000      13.4801536999      2.7009264478      0.0000000000
