# M(M_sol)                 Lambda          n_Bc(fm^-3)         R(km)            m_B(M_sol)        m_Bquar/M_B
0.1525979845     18957170.9382083006      0.1510000000      18.9292807461      0.1528231078      0.0000000000
0.1575405853     16000447.7346172426      0.1530000000      18.3364687508      0.1578367752      0.0000000000
0.1627504233     13503333.3261607159      0.1550000000      17.7957313007      0.1631258664      0.0000000000
0.1682315505     11395992.3826986197      0.1570000000      17.3024304198      0.1686951550      0.0000000000
0.1739889040      9618801.3756613694      0.1590000000      16.8524268116      0.1745503584      0.0000000000
0.1800265086      8120912.3571268367      0.1610000000      16.4419273616      0.1806963144      0.0000000000
0.1863478879      6859018.1662427420      0.1630000000      16.0674769568      0.1871373955      0.0000000000
0.1929560638      5796304.0549453786      0.1650000000      15.7259275204      0.1938775071      0.0000000000
0.1998530325      4901491.0072028413      0.1670000000      15.4143673103      0.2009195521      0.0000000000
0.2070417620      4148047.3591978475      0.1690000000      15.1302560446      0.2082674683      0.0000000000
0.2145236630      3513571.6416833648      0.1710000000      14.8711981543      0.2159236442      0.0000000000
0.2223008087      2979100.8955886750      0.1730000000      14.6351015539      0.2238911884      0.0000000000
0.2303736884      2528697.0297060064      0.1750000000      14.4199712825      0.2321716259      0.0000000000
0.2387429527      2148921.9824362635      0.1770000000      14.2240360571      0.2407666840      0.0000000000
0.2474088486      1828483.8096736185      0.1790000000      14.0456846430      0.2496777116      0.0000000000
0.2563714252      1557889.4666209358      0.1810000000      13.8834672094      0.2589058894      0.0000000000
0.2656301829      1329186.2101554153      0.1830000000      13.7360523691      0.2684518646      0.0000000000
0.2751835792      1135697.9521793565      0.1850000000      13.6021724424      0.2783152400      0.0000000000
0.2850309170       971824.7276727082      0.1870000000      13.4807706361      0.2884965161      0.0000000000
0.2951702732       832872.0075866579      0.1890000000      13.3708160729      0.2989949543      0.0000000000
0.3055994625       714909.5971644075      0.1910000000      13.2713756627      0.3098095645      0.0000000000
0.3163159369       614638.0482865836      0.1930000000      13.1815962668      0.3209390004      0.0000000000
0.3273168478       529292.2350376457      0.1950000000      13.1007021646      0.3323816194      0.0000000000
0.3385991340       456548.5775511712      0.1970000000      13.0279947818      0.3441355716      0.0000000000
0.3501592070       394460.3311966765      0.1990000000      12.9628197832      0.3561984685      0.0000000000
0.3619932116       341388.1637186654      0.2010000000      12.9045825890      0.3685676510      0.0000000000
0.3740973255       295954.8947396711      0.2030000000      12.8527673278      0.3812404987      0.0000000000
0.3864661353       257006.5270735289      0.2050000000      12.8067964684      0.3942127265      0.0000000000
0.3990954845       223563.0545187296      0.2070000000      12.7662630176      0.4074813626      0.0000000000
0.4119801766       194803.4470585553      0.2090000000      12.7307348484      0.4210423387      0.0000000000
0.4251143180       170035.0100739373      0.2110000000      12.6997783244      0.4348908428      0.0000000000
0.4384933189       148665.1923608944      0.2130000000      12.6731219144      0.4490234265      0.0000000000
0.4521099464       130204.5767828346      0.2150000000      12.6503224135      0.4634338335      0.0000000000
0.4659587842       114228.7517337449      0.2170000000      12.6311341684      0.4781177075      0.0000000000
0.4800333637       100382.2970913224      0.2190000000      12.6152657714      0.4930695569      0.0000000000
0.4943268266        88362.5287239546      0.2210000000      12.6024322862      0.5082834504      0.0000000000
0.5088323763        77912.3928713991      0.2230000000      12.5923900403      0.5237534912      0.0000000000
0.5235435037        68810.7808313403      0.2250000000      12.5849529046      0.5394740596      0.0000000000
0.5384526044        60872.8154114896      0.2270000000      12.5798731164      0.5554383304      0.0000000000
0.5535523773        53938.7560402893      0.2290000000      12.5769562251      0.5716397637      0.0000000000
0.5688353680        47872.3524745021      0.2310000000      12.5760202211      0.5880716139      0.0000000000
0.5842944633        42555.4910844043      0.2330000000      12.5769353786      0.6047274617      0.0000000000
0.5999215162        37889.5727851725      0.2350000000      12.5795046658      0.6215997270      0.0000000000
0.6157087872        33788.6479135018      0.2370000000      12.5835842203      0.6386812191      0.0000000000
0.6316484780        30178.7522132092      0.2390000000      12.5890410675      0.6559646336      0.0000000000
0.6477330066        26995.6710959487      0.2410000000      12.5957771723      0.6734428491      0.0000000000
0.6639541378        24185.3960429857      0.2430000000      12.6036489018      0.6911079789      0.0000000000
0.6803041999        21700.0133850399      0.2450000000      12.6125728213      0.7089526941      0.0000000000
0.6967748478        19499.3000359954      0.2470000000      12.6224155143      0.7269688713      0.0000000000
0.7133584143        17547.5090842099      0.2490000000      12.6331100566      0.7451490673      0.0000000000
0.7300466628        15814.1834230616      0.2510000000      12.6445449312      0.7634851554      0.0000000000
0.7468318250        14272.5020769467      0.2530000000      12.6566538081      0.7819694588      0.0000000000
0.7637059292        12899.4966400202      0.2550000000      12.6693549280      0.8005940128      0.0000000000
0.7806610986        11674.9512859867      0.2570000000      12.6825757339      0.8193508936      0.0000000000
0.7976896751        10581.2182067538      0.2590000000      12.6962629684      0.8382323534      0.0000000000
0.8147839912         9602.9151840894      0.2610000000      12.7103610336      0.8572305690      0.0000000000
0.8319360451         8726.9690159355      0.2630000000      12.7247806741      0.8763372773      0.0000000000
0.8491386150         7941.3786274156      0.2650000000      12.7394995320      0.8955450171      0.0000000000
0.8663841252         7235.9992491836      0.2670000000      12.7544576310      0.9148458654      0.0000000000
0.8836652019         6601.7793032020      0.2690000000      12.7696071828      0.9342320587      0.0000000000
0.9009746215         6030.8471570634      0.2710000000      12.7849066369      0.9536959323      0.0000000000
0.9183051549         5516.2947944128      0.2730000000      12.8003056348      0.9732297497      0.0000000000
0.9356501348         5051.7751245233      0.2750000000      12.8157973426      0.9928263417      0.0000000000
0.9530023877         4632.0966108674      0.2770000000      12.8313170110      1.0124779004      0.0000000000
0.9703553955         4252.3783792566      0.2790000000      12.8468510348      1.0321772940      0.0000000000
0.9877025126         3908.4304768158      0.2810000000      12.8623620570      1.0519171819      0.0000000000
1.0050373813         3596.4904368935      0.2830000000      12.8778280988      1.0716904873      0.0000000000
1.0223536916         3313.2732313104      0.2850000000      12.8932186389      1.0914901239      0.0000000000
1.0396454059         3055.8125990161      0.2870000000      12.9085163019      1.1113092549      0.0000000000
1.0569065127         2821.5297189054      0.2890000000      12.9236920050      1.1311410122      0.0000000000
1.0741313327         2608.0726598288      0.2910000000      12.9387349570      1.1509788495      0.0000000000
1.0913143163         2413.3556206248      0.2930000000      12.9536324081      1.1708163123      0.0000000000
1.1084498792         2235.5803353509      0.2950000000      12.9683525503      1.1906468480      0.0000000000
1.1255328069         2073.0848442043      0.2970000000      12.9828849489      1.2104642753      0.0000000000
1.1425580840         1924.3833679171      0.2990000000      12.9972234377      1.2302625896      0.0000000000
1.1595207087         1788.1830801147      0.3010000000      13.0113469510      1.2500357495      0.0000000000
1.1764159750         1663.2901387007      0.3030000000      13.0252481342      1.2697780066      0.0000000000
1.1932393595         1548.6380441366      0.3050000000      13.0389220330      1.2894837763      0.0000000000
1.2099863484         1443.3065940537      0.3070000000      13.0523475944      1.3091474362      0.0000000000
1.2266526908         1346.4454596473      0.3090000000      13.0655141748      1.3287636252      0.0000000000
1.2432345040         1257.2526617438      0.3110000000      13.0784334668      1.3483273715      0.0000000000
1.2597278090         1175.0553119411      0.3130000000      13.0910896493      1.3678335465      0.0000000000
1.2761287824         1099.2535238241      0.3150000000      13.1034662515      1.3872771627      0.0000000000
1.2924340545         1029.2543598899      0.3170000000      13.1155788019      1.4066537303      0.0000000000
1.3086400060          964.5814455536      0.3190000000      13.1273985558      1.4259584261      0.0000000000
1.3247436155          904.7504456226      0.3210000000      13.1389452368      1.4451870997      0.0000000000
1.3407416376          849.3714711318      0.3230000000      13.1501969737      1.4643353000      0.0000000000
1.3566312542          798.0516247315      0.3250000000      13.1611625154      1.4833990535      0.0000000000
1.3724096654          750.4566914459      0.3270000000      13.1718360219      1.5023743768      0.0000000000
1.3880742247          706.2865061415      0.3290000000      13.1822123209      1.5212574394      0.0000000000
1.4036225446          665.2445877328      0.3310000000      13.1922994380      1.5400446973      0.0000000000
1.4190522771          627.0847504785      0.3330000000      13.2020938274      1.5587326248      0.0000000000
1.4343611902          591.5794863460      0.3350000000      13.2115892582      1.5773178127      0.0000000000
1.4495472616          558.5147020256      0.3370000000      13.2207880225      1.5957970820      0.0000000000
1.4646086327          527.6941473827      0.3390000000      13.2296962915      1.6141674307      0.0000000000
1.4795434577          498.9488924149      0.3410000000      13.2383064022      1.6324258521      0.0000000000
1.4943500866          472.1187272264      0.3430000000      13.2466188636      1.6505695588      0.0000000000
1.5090270950          447.0494347594      0.3450000000      13.2546466355      1.6685960224      0.0000000000
1.5235729840          423.6150605237      0.3470000000      13.2623792870      1.6865026068      0.0000000000
1.5379864857          401.6917010695      0.3490000000      13.2698201413      1.7042869450      0.0000000000
1.5522665026          381.1622702976      0.3510000000      13.2769796929      1.7219468660      0.0000000000
1.5664119126          361.9285129625      0.3530000000      13.2838519430      1.7394801573      0.0000000000
1.5804217591          343.8964487890      0.3550000000      13.2904380080      1.7568847989      0.0000000000
1.5942952786          326.9742192305      0.3570000000      13.2967504173      1.7741590014      0.0000000000
1.6080316294          311.0884984685      0.3590000000      13.3027793503      1.7913008697      0.0000000000
1.6216302262          296.1630210811      0.3610000000      13.3085350628      1.8083088196      0.0000000000
1.6350904574          282.1328982640      0.3630000000      13.3140126515      1.8251812292      0.0000000000
1.6484119971          268.9277108200      0.3650000000      13.3192323474      1.8419168284      0.0000000000
1.6615943457          256.4989827483      0.3670000000      13.3241809071      1.8585141248      0.0000000000
1.6746372592          244.7899849398      0.3690000000      13.3288672220      1.8749719444      0.0000000000
1.6875405194          233.7542730870      0.3710000000      13.3332930528      1.8912891425      0.0000000000
1.7003040082          223.3445616570      0.3730000000      13.3374632115      1.9074647006      0.0000000000
1.7129276525          213.5212470794      0.3750000000      13.3413785683      1.9234976557      0.0000000000
1.7254115270          204.2419805554      0.3770000000      13.3450502687      1.9393872337      0.0000000000
1.7377555887          195.4786480540      0.3790000000      13.3484643416      1.9551325099      0.0000000000
1.7499601487          187.1894772076      0.3810000000      13.3516458122      1.9707330150      0.0000000000
1.7620253306          179.3484120309      0.3830000000      13.3545858302      1.9861880415      0.0000000000
1.7739514505          171.9259534988      0.3850000000      13.3572935670      2.0014971316      0.0000000000
1.7857387893          164.8970465874      0.3870000000      13.3597653900      2.0166597869      0.0000000000
1.7973877554          158.2372173643      0.3890000000      13.3620077244      2.0316756760      0.0000000000
1.8088988372          151.9209696695      0.3910000000      13.3640309927      2.0465445774      0.0000000000
1.8202724716          145.9300695578      0.3930000000      13.3658314258      2.0612662077      0.0000000000
1.8315091858          140.2443867181      0.3950000000      13.3674111346      2.0758404072      0.0000000000
1.8426096111          134.8444665595      0.3970000000      13.3687807861      2.0902671567      0.0000000000
1.8535743402          129.7138917683      0.3990000000      13.3699394336      2.1045463954      0.0000000000
1.8644040452          124.8364787659      0.4010000000      13.3708917010      2.1186781731      0.0000000000
1.8750994461          120.1973792722      0.4030000000      13.3716436466      2.1326626093      0.0000000000
1.8856612455          115.7833618950      0.4050000000      13.3721934770      2.1464998105      0.0000000000
1.8960902184          111.5820467309      0.4070000000      13.3725449619      2.1601899849      0.0000000000
1.9063872186          107.5791359598      0.4090000000      13.3727088654      2.1737334555      0.0000000000
1.9165530776          103.7637756511      0.4110000000      13.3726882055      2.1871305245      0.0000000000
1.9265885926          100.1276280788      0.4130000000      13.3724764857      2.2003814576      0.0000000000
1.9364947155           96.6586569292      0.4150000000      13.3720865206      2.2134867362      0.0000000000
1.9462723014           93.3494625629      0.4170000000      13.3715126497      2.2264467229      0.0000000000
1.9559223497           90.1895947557      0.4190000000      13.3707676535      2.2392619822      0.0000000000
1.9654458190           87.1708742409      0.4210000000      13.3698549518      2.2519330359      0.0000000000
1.9748436423           84.2871539436      0.4230000000      13.3687707070      2.2644603815      0.0000000000
1.9841168278           81.5306943113      0.4250000000      13.3675198442      2.2768446283      0.0000000000
1.9932664321           78.8938940645      0.4270000000      13.3661122815      2.2890864612      0.0000000000
2.0022934433           76.3713886184      0.4290000000      13.3645446986      2.3011864850      0.0000000000
2.0111989161           73.9570469498      0.4310000000      13.3628219400      2.3131454051      0.0000000000
2.0199839081           71.6453169517      0.4330000000      13.3609471703      2.3249639418      0.0000000000
2.0286494870           69.4307864682      0.4350000000      13.3589234028      2.3366428416      0.0000000000
2.0371967446           67.3085322548      0.4370000000      13.3567556553      2.3481828939      0.0000000000
2.0456267652           65.2738085592      0.4390000000      13.3544462431      2.3595848907      0.0000000000
2.0539406097           63.3230885571      0.4410000000      13.3519922264      2.3708496039      0.0000000000
2.0621394297           61.4512589916      0.4430000000      13.3494042237      2.3819779394      0.0000000000
2.0702243367           59.6543312187      0.4450000000      13.3466853103      2.3929707616      0.0000000000
2.0781964305           57.9291897778      0.4470000000      13.3438356329      2.4038289298      0.0000000000
2.0860568086           56.2726078863      0.4490000000      13.3408541138      2.4145533129      0.0000000000
2.0938066449           54.6803958446      0.4510000000      13.3377518364      2.4251448954      0.0000000000
2.1014469970           53.1508562627      0.4530000000      13.3345197806      2.4356045141      0.0000000000
2.1089790774           51.6795174181      0.4550000000      13.3311747090      2.4459332303      0.0000000000
2.1164039693           50.2644141340      0.4570000000      13.3277113229      2.4561319400      0.0000000000
2.1237227997           48.9030904021      0.4590000000      13.3241315013      2.4662016103      0.0000000000
2.1309367217           47.5925601134      0.4610000000      13.3204416105      2.4761432565      0.0000000000
2.1380468654           46.3307289527      0.4630000000      13.3166441355      2.4859578727      0.0000000000
2.1450543190           45.1158931124      0.4650000000      13.3127345163      2.4956464080      0.0000000000
2.1519602730           43.9448831179      0.4670000000      13.3087263059      2.5052099638      0.0000000000
2.1587658084           42.8164804066      0.4690000000      13.3046142914      2.5146495010      0.0000000000
2.1654720387           41.7289847541      0.4710000000      13.3003994167      2.5239660370      0.0000000000
2.1720801109           40.6800951136      0.4730000000      13.2960891452      2.5331606466      0.0000000000
2.1785911396           39.6680709110      0.4750000000      13.2916858726      2.5422343715      0.0000000000
2.1850062319           38.6914493543      0.4770000000      13.2871914237      2.5511882530      0.0000000000
2.1913264564           37.7491560391      0.4790000000      13.2826014850      2.5600232902      0.0000000000
2.1975529407           36.8393468058      0.4810000000      13.2779232449      2.5687405749      0.0000000000
2.2036868004           35.9603453644      0.4830000000      13.2731627948      2.5773411932      0.0000000000
2.2097290945           35.1112297913      0.4850000000      13.2683169215      2.5858261622      0.0000000000
2.2156808869           34.2911023333      0.4870000000      13.2633843076      2.5941965161      0.0000000000
2.2215433125           33.4978226401      0.4890000000      13.2583780158      2.6024534000      0.0000000000
2.2273173943           32.7309442546      0.4910000000      13.2532915970      2.6105978110      0.0000000000
2.2330041972           31.9893632233      0.4930000000      13.2481276063      2.6186308154      0.0000000000
2.2386047835           31.2718957250      0.4950000000      13.2428894804      2.6265534863      0.0000000000
2.2441202244           30.5773112256      0.4970000000      13.2375838137      2.6343669187      0.0000000000
2.2495515034           29.9053789904      0.4990000000      13.2322019394      2.6420720933      0.0000000000
2.2548996881           29.2547151681      0.5010000000      13.2267525812      2.6496701196      0.0000000000
2.2601658000           28.6245537693      0.5030000000      13.2212373886      2.6571620511      0.0000000000
2.2653508550           28.0140203021      0.5050000000      13.2156583981      2.6645489429      0.0000000000
2.2704558259           27.4227352379      0.5070000000      13.2100108889      2.6718317979      0.0000000000
2.2754817451           26.8496270733      0.5090000000      13.2043033477      2.6790117123      0.0000000000
