# M(M_sol)                 Lambda          n_Bc(fm^-3)         R(km)            m_B(M_sol)        m_Bquar/M_B
0.1510181843     12037485.7463525459      0.1670000000      17.1418389229      0.1512481214      0.0000000000
0.1568879906      9882661.3814991508      0.1690000000      16.5908603978      0.1572061755      0.0000000000
0.1629719864      8148377.6912053404      0.1710000000      16.1055018763      0.1633878090      0.0000000000
0.1692648844      6746283.5441634664      0.1730000000      15.6764950147      0.1697882494      0.0000000000
0.1757616620      5607896.1228891807      0.1750000000      15.2961231985      0.1764029894      0.0000000000
0.1824574505      4679809.2247540075      0.1770000000      14.9579251326      0.1832276736      0.0000000000
0.1893475144      3920142.4079668927      0.1790000000      14.6564518166      0.1902580762      0.0000000000
0.1964273146      3295917.5894074109      0.1810000000      14.3870983266      0.1974901664      0.0000000000
0.2036923849      2781041.9335502684      0.1830000000      14.1459434903      0.2049199808      0.0000000000
0.2111383460      2354788.9190881527      0.1850000000      13.9296346877      0.2125436380      0.0000000000
0.2187609296      2000632.3007909951      0.1870000000      13.7352960741      0.2203573624      0.0000000000
0.2265559282      1705342.7304340221      0.1890000000      13.5604472676      0.2283574327      0.0000000000
0.2345191797      1458290.5737710705      0.1910000000      13.4029396443      0.2365401653      0.0000000000
0.2426465700      1250904.5717136401      0.1930000000      13.2609054232      0.2449019167      0.0000000000
0.2509340430      1076249.4184004751      0.1950000000      13.1327167824      0.2534390934      0.0000000000
0.2593775601       928692.6465540272      0.1970000000      13.0169468650      0.2621481096      0.0000000000
0.2679731090       803644.6390151373      0.1990000000      12.9123419314      0.2710253960      0.0000000000
0.2767167055       697353.5887409446      0.2010000000      12.8177974255      0.2800674004      0.0000000000
0.2856043990       606742.0684045323      0.2030000000      12.7323377029      0.2892705943      0.0000000000
0.2946322440       529277.4558236096      0.2050000000      12.6550966419      0.2986314420      0.0000000000
0.3037962955       462868.8152481338      0.2070000000      12.5853025687      0.3081463951      0.0000000000
0.3130926473       405785.1941078263      0.2090000000      12.5222694096      0.3178119327      0.0000000000
0.3225174060       356588.9389134553      0.2110000000      12.4653838207      0.3276245335      0.0000000000
0.3320666798       314082.2399006199      0.2130000000      12.4140950456      0.3375806635      0.0000000000
0.3417365895       277264.5109769519      0.2150000000      12.3679081080      0.3476767874      0.0000000000
0.3515232927       245297.7190732621      0.2170000000      12.3263793174      0.3579093933      0.0000000000
0.3614229392       217477.6562479051      0.2190000000      12.2891066175      0.3682749462      0.0000000000
0.3714317012       193211.1980813119      0.2210000000      12.2557267333      0.3787699182      0.0000000000
0.3815457769       171997.4948474074      0.2230000000      12.2259114250      0.3893907932      0.0000000000
0.3917613845       153412.5152830839      0.2250000000      12.1993629393      0.4001340595      0.0000000000
0.4020747485       137096.2333026189      0.2270000000      12.1758093718      0.4109961952      0.0000000000
0.4124821307       122742.4018535179      0.2290000000      12.1550043930      0.4219737011      0.0000000000
0.4229797966       110089.7390717635      0.2310000000      12.1367216103      0.4330630644      0.0000000000
0.4335640679        98915.0368513389      0.2330000000      12.1207568783      0.4442608142      0.0000000000
0.4442312708        89026.9387312426      0.2350000000      12.1069215520      0.4555634671      0.0000000000
0.4549777661        80261.1578185573      0.2370000000      12.0950432747      0.4669675580      0.0000000000
0.4657999419        72476.3080394559      0.2390000000      12.0849636616      0.4784696332      0.0000000000
0.4766942321        65550.5161791546      0.2410000000      12.0765384801      0.4900662691      0.0000000000
0.4876570854        59378.4094797644      0.2430000000      12.0696334873      0.5017540401      0.0000000000
0.4986849964        53868.7772290970      0.2450000000      12.0641259376      0.5135295507      0.0000000000
0.5097745072        48942.4992572590      0.2470000000      12.0599030252      0.5253894377      0.0000000000
0.5209221689        44530.8039946709      0.2490000000      12.0568601519      0.5373303292      0.0000000000
0.5321246012        40573.7957436627      0.2510000000      12.0549012315      0.5493489081      0.0000000000
0.5433784440        37019.2054026215      0.2530000000      12.0539363127      0.5614418604      0.0000000000
0.5546804007        33821.3916070497      0.2550000000      12.0538840217      0.5736059216      0.0000000000
0.5660272051        30940.3708718250      0.2570000000      12.0546679654      0.5858378416      0.0000000000
0.5774156304        28341.0643862040      0.2590000000      12.0562166667      0.5981343941      0.0000000000
0.5888425124        25992.6952633517      0.2610000000      12.0584656070      0.6104924019      0.0000000000
0.6003047234        23868.1559403928      0.2630000000      12.0613538038      0.6229087089      0.0000000000
0.6117991823        21943.5662765020      0.2650000000      12.0648247506      0.6353801912      0.0000000000
0.6233228598        20197.8462543679      0.2670000000      12.0688260493      0.6479037629      0.0000000000
0.6348727774        18612.3653682873      0.2690000000      12.0733092530      0.6604763750      0.0000000000
0.6464460015        17170.6242480974      0.2710000000      12.0782288304      0.6730950098      0.0000000000
0.6580396607        15858.0056827047      0.2730000000      12.0835434613      0.6857566994      0.0000000000
0.6696509157        14661.5124011260      0.2750000000      12.0892129206      0.6984584930      0.0000000000
0.6812769952        13569.6035424532      0.2770000000      12.0952012700      0.7111974973      0.0000000000
0.6929151776        12572.0034369666      0.2790000000      12.1014748652      0.7239708560      0.0000000000
0.7045627874        11659.5420327998      0.2810000000      12.1080016422      0.7367757459      0.0000000000
0.7162172108        10824.0437904820      0.2830000000      12.1147527238      0.7496093952      0.0000000000
0.7278758824        10058.1941100769      0.2850000000      12.1217006551      0.7624690688      0.0000000000
0.7395362851         9355.4453781951      0.2870000000      12.1288194498      0.7753520681      0.0000000000
0.7511959583         8709.9314988521      0.2890000000      12.1360851195      0.7882557407      0.0000000000
0.7628525038         8116.3951654474      0.2910000000      12.1434761923      0.8011774879      0.0000000000
0.7745035656         7570.1065117400      0.2930000000      12.1509715607      0.8141147414      0.0000000000
0.7861468451         7066.8155236041      0.2950000000      12.1585520340      0.8270649815      0.0000000000
0.7977800974         6602.6945230909      0.2970000000      12.1661996269      0.8400257331      0.0000000000
0.8094011312         6174.2945744656      0.2990000000      12.1738977474      0.8529945660      0.0000000000
0.8210078048         5778.5015617544      0.3010000000      12.1816305885      0.8659690905      0.0000000000
0.8325980312         5412.5031870624      0.3030000000      12.1893835573      0.8789469637      0.0000000000
0.8441697822         5073.7589390150      0.3050000000      12.1971437911      0.8919258949      0.0000000000
0.8557210643         4759.9622063210      0.3070000000      12.2048975478      0.9049036182      0.0000000000
0.8672499583         4469.0308418714      0.3090000000      12.2126341530      0.9178779376      0.0000000000
0.8787545794         4199.0710814095      0.3110000000      12.2203423526      0.9308466829      0.0000000000
0.8902331007         3948.3646940778      0.3130000000      12.2280120554      0.9438077363      0.0000000000
0.9016837424         3715.3494270268      0.3150000000      12.2356336563      0.9567590207      0.0000000000
0.9131047792         3498.6049228672      0.3170000000      12.2431986432      0.9696985077      0.0000000000
0.9244945322         3296.8374649104      0.3190000000      12.2506988872      0.9826242106      0.0000000000
0.9358513720         3108.8676479128      0.3210000000      12.2581268552      0.9955341862      0.0000000000
0.9471737183         2933.6195452031      0.3230000000      12.2654756106      1.0084265364      0.0000000000
0.9584600393         2770.1112709496      0.3250000000      12.2727388923      1.0212994070      0.0000000000
0.9697088460         2617.4442155893      0.3270000000      12.2799104048      1.0341509819      0.0000000000
0.9809187029         2474.7977117861      0.3290000000      12.2869850026      1.0469794957      0.0000000000
0.9920882176         2341.4202753435      0.3310000000      12.2939577348      1.0597832222      0.0000000000
1.0032160387         2216.6220819288      0.3330000000      12.3008235114      1.0725604721      0.0000000000
1.0143008683         2099.7724894866      0.3350000000      12.3075786139      1.0853096084      0.0000000000
1.0253414447         1990.2910729680      0.3370000000      12.3142187708      1.0980290261      0.0000000000
1.0363365579         1887.6463088692      0.3390000000      12.3207410101      1.1107171711      0.0000000000
1.0472850285         1791.3474488814      0.3410000000      12.3271413103      1.1233725158      0.0000000000
1.0581857317         1700.9452328271      0.3430000000      12.3334173043      1.1359935873      0.0000000000
1.0690375761         1616.0246779439      0.3450000000      12.3395660480      1.1485789432      0.0000000000
1.0798395159         1536.2043007850      0.3470000000      12.3455854123      1.1611271865      0.0000000000
1.0905905410         1461.1317019903      0.3490000000      12.3514730151      1.1736369536      0.0000000000
1.1012896867         1390.4825186042      0.3510000000      12.3572273682      1.1861069273      0.0000000000
1.1119360186         1323.9563226146      0.3530000000      12.3628463443      1.1985358179      0.0000000000
1.1225286479         1261.2763946276      0.3550000000      12.3683288309      1.2109223827      0.0000000000
1.1330667160         1202.1860772886      0.3570000000      12.3736731360      1.2232654076      0.0000000000
1.1435494095         1146.4488956205      0.3590000000      12.3788787579      1.2355637257      0.0000000000
1.1539759394         1093.8446652659      0.3610000000      12.3839440500      1.2478161923      0.0000000000
1.1643455645         1044.1707997763      0.3630000000      12.3888690232      1.2600217136      0.0000000000
1.1746575648          997.2380487106      0.3650000000      12.3936522892      1.2721792151      0.0000000000
1.1849112668          952.8722179196      0.3670000000      12.3982941235      1.2842876722      0.0000000000
1.1951060179          910.9103304092      0.3690000000      12.4027934994      1.2963460798      0.0000000000
1.2052412077          871.2021172906      0.3710000000      12.4071507528      1.3083534781      0.0000000000
1.2153162521          833.6072957821      0.3730000000      12.4113656396      1.3203089342      0.0000000000
1.2253305981          797.9955234976      0.3750000000      12.4154381456      1.3322115477      0.0000000000
1.2352837233          764.2454437092      0.3770000000      12.4193683035      1.3440604506      0.0000000000
1.2451751367          732.2443494119      0.3790000000      12.4231565930      1.3558548087      0.0000000000
1.2550043719          701.8868240409      0.3810000000      12.4268030048      1.3675938132      0.0000000000
1.2647709955          673.0749959615      0.3830000000      12.4303082071      1.3792766918      0.0000000000
1.2744745977          645.7173133427      0.3850000000      12.4336725339      1.3909026971      0.0000000000
1.2841147976          619.7284746933      0.3870000000      12.4368966015      1.4024711133      0.0000000000
1.2936912395          595.0287628617      0.3890000000      12.4399809685      1.4139812524      0.0000000000
1.3032035943          571.5437548085      0.3910000000      12.4429264121      1.4254324553      0.0000000000
1.3126515558          549.2038159098      0.3930000000      12.4457335401      1.4368240890      0.0000000000
1.3220348445          527.9439162440      0.3950000000      12.4484032958      1.4481555496      0.0000000000
1.3313532032          507.7031469073      0.3970000000      12.4509364860      1.4594262586      0.0000000000
1.3406063976          488.4244868946      0.3990000000      12.4533340023      1.4706356637      0.0000000000
1.3497942164          470.0545444628      0.4010000000      12.4555968016      1.4817832380      0.0000000000
1.3589164701          452.5432630471      0.4030000000      12.4577258932      1.4928684804      0.0000000000
1.3679729899          435.8437105606      0.4050000000      12.4597222682      1.5038909134      0.0000000000
1.3769636284          419.9118870230      0.4070000000      12.4615870243      1.5148500842      0.0000000000
1.3858882580          404.7064804707      0.4090000000      12.4633212543      1.5257455633      0.0000000000
1.3947467711          390.1887080348      0.4110000000      12.4649261248      1.5365769448      0.0000000000
1.4035390780          376.3220966110      0.4130000000      12.4664026956      1.5473438440      0.0000000000
1.4122651088          363.0724324055      0.4150000000      12.4677522372      1.5580458999      0.0000000000
1.4209248112          350.4074961853      0.4170000000      12.4689759249      1.5686827724      0.0000000000
1.4295181498          338.2969989323      0.4190000000      12.4700749804      1.5792541426      0.0000000000
1.4380451069          326.7124350912      0.4210000000      12.4710506736      1.5897597124      0.0000000000
1.4465056806          315.6269497450      0.4230000000      12.4719042422      1.6001992037      0.0000000000
1.4548998852          305.0152658540      0.4250000000      12.4726369628      1.6105723582      0.0000000000
1.4632277511          294.8535609407      0.4270000000      12.4732501789      1.6208789380      0.0000000000
1.4714893220          285.1193406261      0.4290000000      12.4737450746      1.6311187216      0.0000000000
1.4796846585          275.7914670266      0.4310000000      12.4741231319      1.6412915093      0.0000000000
1.4878138327          266.8498911714      0.4330000000      12.4743854936      1.6513971160      0.0000000000
1.4958769327          258.2757884559      0.4350000000      12.4745336257      1.6614353770      0.0000000000
1.5038740577          250.0513058763      0.4370000000      12.4745687562      1.6714061427      0.0000000000
1.5118053218          242.1596378972      0.4390000000      12.4744923529      1.6813092826      0.0000000000
1.5196708493          234.5848493025      0.4410000000      12.4743056435      1.6911446796      0.0000000000
1.5274707790          227.3119451170      0.4430000000      12.4740101913      1.7009122363      0.0000000000
1.5352052572          220.3266180566      0.4450000000      12.4736069982      1.7106118655      0.0000000000
1.5428744455          213.6154608412      0.4470000000      12.4730976591      1.7202435005      0.0000000000
1.5504785144          207.1657374790      0.4490000000      12.4724835338      1.7298070871      0.0000000000
1.5580176431          200.9653119985      0.4510000000      12.4717656800      1.7393025833      0.0000000000
1.5654920254          195.0028547116      0.4530000000      12.4709458725      1.7487299670      0.0000000000
1.5729018602          189.2674757833      0.4550000000      12.4700252076      1.7580892239      0.0000000000
1.5802473580          183.7489315412      0.4570000000      12.4690051165      1.7673803561      0.0000000000
1.5875287374          178.4374805050      0.4590000000      12.4678869093      1.7766033776      0.0000000000
1.5947462252          173.3238720871      0.4610000000      12.4666718338      1.7857583145      0.0000000000
1.6019000580          168.3993655719      0.4630000000      12.4653613419      1.7948452068      0.0000000000
1.6089904794          163.6556433086      0.4650000000      12.4639567694      1.8038641056      0.0000000000
1.6160177398          159.0847890147      0.4670000000      12.4624593147      1.8128150725      0.0000000000
1.6229820995          154.6793322598      0.4690000000      12.4608705273      1.8216981831      0.0000000000
1.6298838212          150.4320821304      0.4710000000      12.4591912890      1.8305135189      0.0000000000
1.6367231804          146.3363315856      0.4730000000      12.4574233827      1.8392611790      0.0000000000
1.6435004530          142.3855717591      0.4750000000      12.4555676403      1.8479412655      0.0000000000
1.6502159260          138.5737212390      0.4770000000      12.4536256812      1.8565538967      0.0000000000
1.6568698893          134.8949283090      0.4790000000      12.4515986330      1.8650991969      0.0000000000
1.6634626399          131.3436536567      0.4810000000      12.4494878410      1.8735773016      0.0000000000
1.6699944796          127.9146109367      0.4830000000      12.4472945532      1.8819883545      0.0000000000
1.6764657155          124.6027707489      0.4850000000      12.4450200346      1.8903325089      0.0000000000
1.6828766582          121.4033166067      0.4870000000      12.4426653682      1.8986099243      0.0000000000
1.6892276254          118.3117010945      0.4890000000      12.4402319299      1.9068207722      0.0000000000
1.6955189372          115.3235598071      0.4910000000      12.4377208623      1.9149652292      0.0000000000
1.7017509190          112.4347431154      0.4930000000      12.4351333872      1.9230434812      0.0000000000
1.7079239000          109.6412948414      0.4950000000      12.4324707673      1.9310557218      0.0000000000
1.7140382123          106.9394272447      0.4970000000      12.4297340797      1.9390021502      0.0000000000
1.7200941925          104.3255400753      0.4990000000      12.4269245575      1.9468829742      0.0000000000
1.7260921801          101.7961887031      0.5010000000      12.4240433443      1.9546984079      0.0000000000
1.7320325181           99.3480930640      0.5030000000      12.4210916536      1.9624486723      0.0000000000
1.7379155521           96.9781115841      0.5050000000      12.4180706045      1.9701339943      0.0000000000
1.7437416298           94.6832327689      0.5070000000      12.4149812482      1.9777546061      0.0000000000
1.7495111033           92.4606103288      0.5090000000      12.4118248604      1.9853107482      0.0000000000
1.7552243244           90.3074775753      0.5110000000      12.4086022949      1.9928026629      0.0000000000
1.7608816505           88.2212434879      0.5130000000      12.4053149592      2.0002306031      0.0000000000
1.7664834374           86.1993755962      0.5150000000      12.4019636442      2.0075948216      0.0000000000
1.7720300461           84.2394968670      0.5170000000      12.3985496557      2.0148955804      0.0000000000
1.7775218370           82.3393023323      0.5190000000      12.3950739253      2.0221331441      0.0000000000
1.7829591731           80.4965967565      0.5210000000      12.3915375267      2.0293077825      0.0000000000
1.7883424191           78.7092828470      0.5230000000      12.3879415481      2.0364197705      0.0000000000
1.7936719400           76.9753437706      0.5250000000      12.3842869778      2.0434693860      0.0000000000
