# M(M_sol)                 Lambda          n_Bc(fm^-3)         R(km)            m_B(M_sol)        m_Bquar/M_B
0.1500932980     12842895.8896405045      0.1640000000      17.2666282923      0.1503231070      0.0000000000
0.1573899303     10085702.2033117432      0.1660000000      16.5810294347      0.1577301929      0.0000000000
0.1651058501      7953296.2461865349      0.1680000000      15.9901776509      0.1655726666      0.0000000000
0.1732388486      6297731.1427638261      0.1700000000      15.4795257543      0.1738497928      0.0000000000
0.1817863487      5007500.1683544451      0.1720000000      15.0370875219      0.1825605137      0.0000000000
0.1907455475      3998168.1944378535      0.1740000000      14.6529481831      0.1917035909      0.0000000000
0.2001131935      3205553.3550654687      0.1760000000      14.3188486102      0.2012773732      0.0000000000
0.2098858535      2580718.7373861000      0.1780000000      14.0278974886      0.2112800652      0.0000000000
0.2200596692      2086228.6429131441      0.1800000000      13.7742982462      0.2217094741      0.0000000000
0.2306304103      1693360.8444306096      0.1820000000      13.5531563335      0.2325630588      0.0000000000
0.2415935146      1380008.8719909573      0.1840000000      13.3603238006      0.2438379661      0.0000000000
0.2529440076      1129103.8830831971      0.1860000000      13.1922640217      0.2555309434      0.0000000000
0.2646765580       927422.1740305676      0.1880000000      13.0459530045      0.2676383903      0.0000000000
0.2767854081       764684.4761342470      0.1900000000      12.9187885303      0.2801562808      0.0000000000
0.2892644086       632873.0420743694      0.1920000000      12.8085254524      0.2930801945      0.0000000000
0.3021070685       525711.5113561596      0.1940000000      12.7132225336      0.3064053614      0.0000000000
0.3153063962       438269.6074488387      0.1960000000      12.6311815135      0.3201264919      0.0000000000
0.3288551912       366660.6436916946      0.1980000000      12.5609348323      0.3342380740      0.0000000000
0.3427457124       307809.8469105021      0.2000000000      12.5011823555      0.3487340212      0.0000000000
0.3569699526       259275.8724771444      0.2020000000      12.4507887917      0.3636079530      0.0000000000
0.3715195333       219113.8550375953      0.2040000000      12.4087508348      0.3788530793      0.0000000000
0.3863858285       185768.6560395225      0.2060000000      12.3741880882      0.3944623242      0.0000000000
0.4015597721       157992.9789453631      0.2080000000      12.3463086646      0.4104281170      0.0000000000
0.4170320635       134782.6739470940      0.2100000000      12.3244124412      0.4267426029      0.0000000000
0.4327932335       115326.7343241647      0.2120000000      12.3078840680      0.4433977078      0.0000000000
0.4488334299        98968.1388139831      0.2140000000      12.2961622577      0.4603849050      0.0000000000
0.4651426171        85172.7313329775      0.2160000000      12.2887474149      0.4776954219      0.0000000000
0.4817106230        73504.9158795974      0.2180000000      12.2851969411      0.4953202843      0.0000000000
0.4985269990        63608.4755034175      0.2200000000      12.2851045407      0.5132501628      0.0000000000
0.5155811991        55191.0792576935      0.2220000000      12.2881089526      0.5314755587      0.0000000000
0.5328625152        48012.1639994758      0.2240000000      12.2938816544      0.5499867306      0.0000000000
0.5503601787        41873.2089343070      0.2260000000      12.3021291934      0.5687737995      0.0000000000
0.5680632936        36609.8815352604      0.2280000000      12.3125844823      0.5878266728      0.0000000000
0.5859608720        32085.8366492899      0.2300000000      12.3250010433      0.6071350782      0.0000000000
0.6040419585        28187.5302601653      0.2320000000      12.3391621885      0.6266886965      0.0000000000
0.6222955158        24820.2630167708      0.2340000000      12.3548658176      0.6464770327      0.0000000000
0.6407105321        21904.7736151643      0.2360000000      12.3719301854      0.6664895316      0.0000000000
0.6592760172        19374.5643980719      0.2380000000      12.3901899738      0.6867155708      0.0000000000
0.6779810030        17173.7371957496      0.2400000000      12.4094930166      0.7071444587      0.0000000000
0.6968146022        15255.1508701289      0.2420000000      12.4297023259      0.7277654973      0.0000000000
0.7157659842        13578.9631664228      0.2440000000      12.4506913513      0.7485679550      0.0000000000
0.7348244292        12111.4356999496      0.2460000000      12.4723459479      0.7695411242      0.0000000000
0.7539793196        10823.9126797435      0.2480000000      12.4945612642      0.7906743116      0.0000000000
0.7732201555         9692.0108017027      0.2500000000      12.5172408171      0.8119568548      0.0000000000
0.7925365960         8694.9363718843      0.2520000000      12.5402982243      0.8333781679      0.0000000000
0.8119184216         7814.9089103075      0.2540000000      12.5636516831      0.8549277000      0.0000000000
0.8313556168         7036.7053844378      0.2560000000      12.5872298866      0.8765950273      0.0000000000
0.8508383090         6347.2572303713      0.2580000000      12.6109646884      0.8983697857      0.0000000000
0.8703568426         5735.3151564652      0.2600000000      12.6347964862      0.9202417557      0.0000000000
0.8899017380         5191.1957982951      0.2620000000      12.6586689306      0.9422008158      0.0000000000
0.9094637273         4706.5312890226      0.2640000000      12.6825311348      0.9642369855      0.0000000000
0.9290337713         4274.0769690593      0.2660000000      12.7063380333      0.9863404458      0.0000000000
0.9486030161         3887.5625010579      0.2680000000      12.7300452643      1.0085014917      0.0000000000
0.9681628778         3541.5337127674      0.2700000000      12.7536163645      1.0307106306      0.0000000000
0.9877049795         3231.2486798842      0.2720000000      12.7770158511      1.0529585124      0.0000000000
1.0072211929         2952.5726708987      0.2740000000      12.8002125938      1.0752359806      0.0000000000
1.0267036279         2701.8969272883      0.2760000000      12.8231781317      1.0975340615      0.0000000000
1.0461446141         2476.0661769986      0.2780000000      12.8458842402      1.1198439462      0.0000000000
1.0655367888         2272.3097357605      0.2800000000      12.8683113874      1.1421570951      0.0000000000
1.0848729778         2088.2027492649      0.2820000000      12.8904363147      1.1644651027      0.0000000000
1.1041462916         1921.6113479563      0.2840000000      12.9122415145      1.1867598122      0.0000000000
1.1233500668         1770.6567136611      0.2860000000      12.9337090096      1.2090332505      0.0000000000
1.1424778977         1633.6827479120      0.2880000000      12.9548234371      1.2312776682      0.0000000000
1.1615236499         1509.2253620123      0.2900000000      12.9755734272      1.2534855587      0.0000000000
1.1804814098         1395.9910176685      0.2920000000      12.9959463303      1.2756496023      0.0000000000
1.1993455272         1292.8332802933      0.2940000000      13.0159327284      1.2977627199      0.0000000000
1.2181105808         1198.7355098318      0.2960000000      13.0355228656      1.3198180352      0.0000000000
1.2367714067         1112.7940483385      0.2980000000      13.0547098561      1.3418089121      0.0000000000
1.2553230808         1034.2052805280      0.3000000000      13.0734880242      1.3637289371      0.0000000000
1.2737608907          962.2542000076      0.3020000000      13.0918501020      1.3855718895      0.0000000000
1.2920803976          896.3011998435      0.3040000000      13.1097942150      1.4073318179      0.0000000000
1.3102773471          835.7769539345      0.3060000000      13.1273145079      1.4290029380      0.0000000000
1.3283477537          780.1702837070      0.3080000000      13.1444108708      1.4505797361      0.0000000000
1.3462878181          729.0249114341      0.3100000000      13.1610800990      1.4720568742      0.0000000000
1.3640939634          681.9318358441      0.3120000000      13.1773203264      1.4934292356      0.0000000000
1.3817628587          638.5216200516      0.3140000000      13.1931342085      1.5146919579      0.0000000000
1.3992913242          598.4653454893      0.3160000000      13.2085187661      1.5358403202      0.0000000000
1.4166764279          561.4647704375      0.3180000000      13.2234766906      1.5568698644      0.0000000000
1.4339154119          527.2519885787      0.3200000000      13.2380086339      1.5777763080      0.0000000000
1.4510057204          495.5851971531      0.3220000000      13.2521168382      1.5985555818      0.0000000000
1.4679449682          466.2464560962      0.3240000000      13.2658021649      1.6192037939      0.0000000000
1.4847309796          439.0376760272      0.3260000000      13.2790691069      1.6397172804      0.0000000000
1.5013617271          413.7807815443      0.3280000000      13.2919192623      1.6600925328      0.0000000000
1.5178353683          390.3137539328      0.3300000000      13.3043562095      1.6803262463      0.0000000000
1.5341502321          368.4894667059      0.3320000000      13.3163845756      1.7004153055      0.0000000000
1.5503047767          348.1753209719      0.3340000000      13.3280054997      1.7203567347      0.0000000000
1.5662976613          329.2494077862      0.3360000000      13.3392259870      1.7401477894      0.0000000000
1.5821276582          311.6019233709      0.3380000000      13.3500488117      1.7597858496      0.0000000000
1.5977936991          295.1323672317      0.3400000000      13.3604788090      1.7792684796      0.0000000000
1.6132948552          279.7491188470      0.3420000000      13.3705210168      1.7985934055      0.0000000000
1.6286303248          265.3688129641      0.3440000000      13.3801798433      1.8177585021      0.0000000000
1.6437994307          251.9152932857      0.3460000000      13.3894591810      1.8367617909      0.0000000000
1.6588016406          239.3185760923      0.3480000000      13.3983657910      1.8556014686      0.0000000000
1.6736365239          227.5149030936      0.3500000000      13.4069043426      1.8742758546      0.0000000000
1.6883037710          216.4457803709      0.3520000000      13.4150804736      1.8927834162      0.0000000000
1.7028031709          206.0578030513      0.3540000000      13.4228985102      1.9111227432      0.0000000000
1.7171346300          196.3017438669      0.3560000000      13.4303645055      1.9292925726      0.0000000000
1.7312981479          187.1324815829      0.3580000000      13.4374836818      1.9472917595      0.0000000000
1.7452938276          178.5083899158      0.3600000000      13.4442623373      1.9651192926      0.0000000000
1.7591218486          170.3914946611      0.3620000000      13.4507048302      1.9827742600      0.0000000000
1.7727824818          162.7467405667      0.3640000000      13.4568161385      2.0002558699      0.0000000000
1.7862761067          155.5413429884      0.3660000000      13.4626047118      2.0175634751      0.0000000000
1.7996031374          148.7458832871      0.3680000000      13.4680730761      2.0346964776      0.0000000000
1.8127640943          142.3326518531      0.3700000000      13.4732279839      2.0516544230      0.0000000000
1.8257595602          136.2762056754      0.3720000000      13.4780750230      2.0684369447      0.0000000000
1.8385901828          130.5531032078      0.3740000000      13.4826194462      2.0850437681      0.0000000000
1.8512566797          125.1414749860      0.3760000000      13.4868673229      2.1014747185      0.0000000000
1.8637598231          120.0212311868      0.3780000000      13.4908239584      2.1177297017      0.0000000000
1.8761004395          115.1738324473      0.3800000000      13.4944942250      2.1338087041      0.0000000000
1.8882794204          110.5818457105      0.3820000000      13.4978846043      2.1497118088      0.0000000000
1.9002976900          106.2293835448      0.3840000000      13.5009990389      2.1654391524      0.0000000000
1.9121562311          102.1015664999      0.3860000000      13.5038429793      2.1809909608      0.0000000000
1.9238560817           98.1843776150      0.3880000000      13.5064234472      2.1963675456      0.0000000000
1.9353982980           94.4651449450      0.3900000000      13.5087439737      2.2115692543      0.0000000000
1.9467839902           90.9318680740      0.3920000000      13.5108103503      2.2265965204      0.0000000000
1.9580143008           87.5734166213      0.3940000000      13.5126276456      2.2414498335      0.0000000000
1.9690904044           84.3794506539      0.3960000000      13.5142006688      2.2561297399      0.0000000000
1.9800135121           81.3402576478      0.3980000000      13.5155350448      2.2706368498      0.0000000000
1.9907848549           78.4468944498      0.4000000000      13.5166348851      2.2849718138      0.0000000000
2.0014056991           75.6909314524      0.4020000000      13.5175056207      2.2991353456      0.0000000000
2.0118773316           73.0645112642      0.4040000000      13.5181520417      2.3131282018      0.0000000000
2.0222010583           70.5603398483      0.4060000000      13.5185783406      2.3269511797      0.0000000000
2.0323782122           68.1715387171      0.4080000000      13.5187896904      2.3406051291      0.0000000000
2.0424101436           65.8916669023      0.4100000000      13.5187910219      2.3540909393      0.0000000000
2.0522982119           63.7147860297      0.4120000000      13.5185860335      2.3674095275      0.0000000000
2.0620437996           61.6352463089      0.4140000000      13.5181796663      2.3805618588      0.0000000000
2.0716483019           59.6477580820      0.4160000000      13.5175766677      2.3935489317      0.0000000000
2.0811131181           57.7474381571      0.4180000000      13.5167805446      2.4063717667      0.0000000000
2.0904396650           55.9296384768      0.4200000000      13.5157959321      2.4190314243      0.0000000000
2.0996293679           54.1899850183      0.4220000000      13.5146273762      2.4315289936      0.0000000000
2.1086836560           52.5244177985      0.4240000000      13.5132787621      2.4438655852      0.0000000000
2.1176039657           50.9290922375      0.4260000000      13.5117542007      2.4560423361      0.0000000000
2.1263917359           49.4004413357      0.4280000000      13.5100572752      2.4680604030      0.0000000000
2.1350484161           47.9350202501      0.4300000000      13.5081927088      2.4799209741      0.0000000000
2.1435754472           46.5296883859      0.4320000000      13.5061633672      2.4916252420      0.0000000000
2.1519742818           45.1814181027      0.4340000000      13.5039737125      2.5031744315      0.0000000000
2.1602463677           43.8873849524      0.4360000000      13.5016273564      2.5145697775      0.0000000000
2.1683931527           42.6449191086      0.4380000000      13.4991279242      2.5258125309      0.0000000000
2.1764160817           41.4515217564      0.4400000000      13.4964786918      2.5369039545      0.0000000000
2.1843166016           40.3047994498      0.4420000000      13.4936837582      2.5478453305      0.0000000000
2.1920961507           39.2025341472      0.4440000000      13.4907460966      2.5586379445      0.0000000000
2.1997561663           38.1426034692      0.4460000000      13.4876692426      2.5692830967      0.0000000000
2.2072980811           37.1230147226      0.4480000000      13.4844566146      2.5797820963      0.0000000000
2.2147233218           36.1418801152      0.4500000000      13.4811115411      2.5901362602      0.0000000000
2.2220333066           35.1974249370      0.4520000000      13.4776368036      2.6003469083      0.0000000000
2.2292294519           34.2879499127      0.4540000000      13.4740359664      2.6104153732      0.0000000000
2.2363131636           33.4118666512      0.4560000000      13.4703120415      2.6203429882      0.0000000000
2.2432858404           32.5676624618      0.4580000000      13.4664679744      2.6301310911      0.0000000000
2.2501488722           31.7539079825      0.4600000000      13.4625066030      2.6397810222      0.0000000000
2.2569036419           30.9692477037      0.4620000000      13.4584310273      2.6492941263      0.0000000000
2.2635515222           30.2123940607      0.4640000000      13.4542440527      2.6586717482      0.0000000000
2.2700938764           29.4821306569      0.4660000000      13.4499485095      2.6679152340      0.0000000000
2.2765320568           28.7773021719      0.4680000000      13.4455468964      2.6770259279      0.0000000000
2.2828674074           28.0968096703      0.4700000000      13.4410420943      2.6860051762      0.0000000000
2.2891012613           27.4396103601      0.4720000000      13.4364367981      2.6948543237      0.0000000000
2.2952349389           26.8047190115      0.4740000000      13.4317333709      2.7035747100      0.0000000000
2.3012697511           26.1911956913      0.4760000000      13.4269343703      2.7121676752      0.0000000000
2.3072069973           25.5981474091      0.4780000000      13.4220423275      2.7206345555      0.0000000000
2.3130479655           25.0247190867      0.4800000000      13.4170596998      2.7289766841      0.0000000000
2.3187939316           24.4701019300      0.4820000000      13.4119889051      2.7371953894      0.0000000000
2.3244461589           23.9335332593      0.4840000000      13.4068321385      2.7452919944      0.0000000000
2.3300058999           23.4142791505      0.4860000000      13.4015918269      2.7532678186      0.0000000000
2.3354743911           22.9116531805      0.4880000000      13.3962696174      2.7611241710      0.0000000000
2.3408528651           22.4249654209      0.4900000000      13.3908687841      2.7688623670      0.0000000000
2.3461425291           21.9536149699      0.4920000000      13.3853900587      2.7764836967      0.0000000000
2.3513445900           21.4969828478      0.4940000000      13.3798364866      2.7839894616      0.0000000000
2.3564602380           21.0544817366      0.4960000000      13.3742103225      2.7913809508      0.0000000000
2.3614906468           20.6255812542      0.4980000000      13.3685130376      2.7986594399      0.0000000000
2.3664369796           20.2097561675      0.5000000000      13.3627465402      2.8058262008      0.0000000000
2.3713003871           19.8065067300      0.5020000000      13.3569127525      2.8128824980      0.0000000000
2.3760820074           19.4153571922      0.5040000000      13.3510136003      2.8198295883      0.0000000000
2.3807829678           19.0358387615      0.5060000000      13.3450513978      2.8266687232      0.0000000000
2.3854043785           18.6675258859      0.5080000000      13.3390276658      2.8334011394      0.0000000000
2.3899473349           18.3100159876      0.5100000000      13.3329434412      2.8400280622      0.0000000000
2.3944129302           17.9628797295      0.5120000000      13.3268018429      2.8465507235      0.0000000000
2.3988022309           17.6257672435      0.5140000000      13.3206032514      2.8529703261      0.0000000000
2.4031163004           17.2983001024      0.5160000000      13.3143500130      2.8592880772      0.0000000000
2.4073561872           16.9801273958      0.5180000000      13.3080439084      2.8655051723      0.0000000000
2.4115229212           16.6709308977      0.5200000000      13.3016856555      2.8716227880      0.0000000000
2.4156175279           16.3703790548      0.5220000000      13.2952775000      2.8776421040      0.0000000000
