# M(M_sol)                 Lambda          n_Bc(fm^-3)         R(km)            m_B(M_sol)        m_Bquar/M_B
0.1510295618     18844222.7060855217      0.1510000000      18.9230356754      0.1512282207      0.0000000000
0.1558597848     15929578.0742124747      0.1530000000      18.3360046161      0.1561264022      0.0000000000
0.1609171486     13476687.1768889744      0.1550000000      17.8027692615      0.1612590396      0.0000000000
0.1662040008     11411181.7302087471      0.1570000000      17.3179173737      0.1666290569      0.0000000000
0.1717224855      9670948.4564664159      0.1590000000      16.8766531220      0.1722392005      0.0000000000
0.1774745166      8203981.6754274666      0.1610000000      16.4747199409      0.1780920111      0.0000000000
0.1834617787      6966664.6881803079      0.1630000000      16.1083322245      0.1841898242      0.0000000000
0.1896857276      5922403.1732509211      0.1650000000      15.7741190160      0.1905347703      0.0000000000
0.1961475898      5040470.2705238424      0.1670000000      15.4690731670      0.1971287729      0.0000000000
0.2028483347      4295066.0036717104      0.1690000000      15.1905046838      0.2039735202      0.0000000000
0.2097887561      3664532.7206649692      0.1710000000      14.9360115205      0.2110705468      0.0000000000
0.2169693696      3130684.7126338687      0.1730000000      14.7034365889      0.2184211279      0.0000000000
0.2243904136      2678253.9971675044      0.1750000000      14.4908395374      0.2260262792      0.0000000000
0.2320519900      2294425.2897000532      0.1770000000      14.2964833754      0.2338868999      0.0000000000
0.2399538686      1968436.1877271181      0.1790000000      14.1187960418      0.2420035706      0.0000000000
0.2480956112      1691249.3094385576      0.1810000000      13.9563614415      0.2503766793      0.0000000000
0.2564765431      1455273.5706820821      0.1830000000      13.8079006805      0.2590063907      0.0000000000
0.2650957233      1254128.8584783426      0.1850000000      13.6722535728      0.2678926135      0.0000000000
0.2739519930      1082451.8605069492      0.1870000000      13.5483707658      0.2770350490      0.0000000000
0.2830439336       935730.2038336041      0.1890000000      13.4352978508      0.2864331462      0.0000000000
0.2923698949       810165.2734059314      0.1910000000      13.3321674537      0.2960861282      0.0000000000
0.3019279891       702557.1481928752      0.1930000000      13.2381899949      0.3059929848      0.0000000000
0.3117160661       610207.4850383609      0.1950000000      13.1526430353      0.3161524445      0.0000000000
0.3217317992       530839.5247883701      0.1970000000      13.0748714075      0.3265630613      0.0000000000
0.3319725559       462529.5355847153      0.1990000000      13.0042695544      0.3372230784      0.0000000000
0.3424355681       403651.3813494492      0.2010000000      12.9402903253      0.3481306033      0.0000000000
0.3531177538       352828.1073592026      0.2030000000      12.8824242339      0.3592834190      0.0000000000
0.3640158869       308893.1758188670      0.2050000000      12.8302091638      0.3706791597      0.0000000000
0.3751265175       270856.8169782862      0.2070000000      12.7832191456      0.3823152250      0.0000000000
0.3864459653       237878.2781532991      0.2090000000      12.7410597278      0.3941887703      0.0000000000
0.3979703827       209242.6580517110      0.2110000000      12.7033697969      0.4062967710      0.0000000000
0.4096957255       184341.2090480590      0.2130000000      12.6698154274      0.4186359891      0.0000000000
0.4216177715       162654.9527941082      0.2150000000      12.6400883565      0.4312029906      0.0000000000
0.4337321172       143740.9307182920      0.2170000000      12.6139030875      0.4439941397      0.0000000000
0.4460342221       127220.5164665791      0.2190000000      12.5909973405      0.4570056430      0.0000000000
0.4585193448       112769.6582750961      0.2210000000      12.5711245861      0.4702334802      0.0000000000
0.4711826528       100110.7248400818      0.2230000000      12.5540607899      0.4836735173      0.0000000000
0.4840191262        89005.4342900279      0.2250000000      12.5395937647      0.4973214031      0.0000000000
0.4970236548        79249.0923431297      0.2270000000      12.5275296248      0.5111726697      0.0000000000
0.5101909999        70665.6036184313      0.2290000000      12.5176873765      0.5252226898      0.0000000000
0.5235157917        63103.2427263402      0.2310000000      12.5098967441      0.5394666725      0.0000000000
0.5369926095        56431.1619511825      0.2330000000      12.5040032499      0.5538997459      0.0000000000
0.5506158927        50536.3160023909      0.2350000000      12.4998587884      0.5685168611      0.0000000000
0.5643800362        45320.9580554872      0.2370000000      12.4973283375      0.5833128920      0.0000000000
0.5782793439        40700.4188143391      0.2390000000      12.4962841593      0.5982825837      0.0000000000
0.5923080813        36601.2959524420      0.2410000000      12.4966090206      0.6134206079      0.0000000000
0.6064604402        32959.8421456433      0.2430000000      12.4981915596      0.6287215229      0.0000000000
0.6207305928        29720.6396045776      0.2450000000      12.5009291266      0.6441798309      0.0000000000
0.6351126529        26835.4440379358      0.2470000000      12.5047251746      0.6597899343      0.0000000000
0.6496007344        24262.2053067205      0.2490000000      12.5094900535      0.6755461982      0.0000000000
0.6641889246        21964.2215594086      0.2510000000      12.5151393299      0.6914429202      0.0000000000
0.6788713101        19909.4194378684      0.2530000000      12.5215945551      0.7074743576      0.0000000000
0.6936419826        18069.7360444204      0.2550000000      12.5287826533      0.7236347329      0.0000000000
0.7084950327        16420.5842075959      0.2570000000      12.5366341805      0.7399182256      0.0000000000
0.7234245861        14940.4008203477      0.2590000000      12.5450857378      0.7563190123      0.0000000000
0.7384247746        13610.2433070944      0.2610000000      12.5540761668      0.7728312329      0.0000000000
0.7534897851        12413.4585949013      0.2630000000      12.5635502465      0.7894490453      0.0000000000
0.7686138225        11335.3843462406      0.2650000000      12.5734542977      0.8061665831      0.0000000000
0.7837911640        10363.0955564928      0.2670000000      12.5837403368      0.8229780159      0.0000000000
0.7990161271         9485.1868582991      0.2690000000      12.5943624158      0.8398775135      0.0000000000
0.8142830759         8691.5811368377      0.2710000000      12.6052763269      0.8568592525      0.0000000000
0.8295864605         7973.3641801211      0.2730000000      12.6164425808      0.8739174607      0.0000000000
0.8449207922         7322.6416869061      0.2750000000      12.6278234395      0.8910463890      0.0000000000
0.8602806635         6732.4136556521      0.2770000000      12.6393841113      0.9082403345      0.0000000000
0.8756607369         6196.4680700234      0.2790000000      12.6510911286      0.9254936275      0.0000000000
0.8910557733         5709.2840504424      0.2810000000      12.6629144930      0.9428006645      0.0000000000
0.9064606180         5265.9497717621      0.2830000000      12.6748257326      0.9601558922      0.0000000000
0.9218702002         4862.0917319526      0.2850000000      12.6867974597      0.9775538080      0.0000000000
0.9372795554         4493.8102205743      0.2870000000      12.6988050206      0.9949889856      0.0000000000
0.9526838213         4157.6243738328      0.2890000000      12.7108256779      1.0124560711      0.0000000000
0.9680782304         3850.4245708612      0.2910000000      12.7228375663      1.0299497754      0.0000000000
0.9834581236         3569.4293013884      0.2930000000      12.7348206168      1.0474648903      0.0000000000
0.9988189519         3312.1481651945      0.2950000000      12.7467564246      1.0649962914      0.0000000000
1.0141562698         3076.3491395845      0.2970000000      12.7586273139      1.0825389318      0.0000000000
1.0294657466         2860.0294316921      0.2990000000      12.7704171551      1.1000878549      0.0000000000
1.0447431687         2661.3906581259      0.3010000000      12.7821115316      1.1176381995      0.0000000000
1.0599844297         2478.8158284221      0.3030000000      12.7936963308      1.1351851886      0.0000000000
1.0751855427         2310.8499735725      0.3050000000      12.8051589899      1.1527241447      0.0000000000
1.0903426379         2156.1822661645      0.3070000000      12.8164880545      1.1702504887      0.0000000000
1.1054519523         2013.6312894262      0.3090000000      12.8276719721      1.1877597281      0.0000000000
1.1205098533         1882.1303848639      0.3110000000      12.8387015072      1.2052474870      0.0000000000
1.1355128182         1760.7160608579      0.3130000000      12.8495674454      1.2227094820      0.0000000000
1.1504574392         1648.5174174950      0.3150000000      12.8602612551      1.2401415305      0.0000000000
1.1653404278         1544.7459607266      0.3170000000      12.8707753209      1.2575395565      0.0000000000
1.1801586171         1448.6874211351      0.3190000000      12.8811032210      1.2748995945      0.0000000000
1.1949089426         1359.6945655331      0.3210000000      12.8912381069      1.2922177686      0.0000000000
1.2095884684         1277.1795783275      0.3230000000      12.9011748341      1.3094903244      0.0000000000
1.2241943640         1200.6088882738      0.3250000000      12.9109080868      1.3267136030      0.0000000000
1.2387239139         1129.4973606209      0.3270000000      12.9204332764      1.3438840535      0.0000000000
1.2531745175         1063.4035042758      0.3290000000      12.9297466537      1.3609982347      0.0000000000
1.2675436800         1001.9254249203      0.3310000000      12.9388444502      1.3780528048      0.0000000000
1.2818290188          944.6967703204      0.3330000000      12.9477236763      1.3950445314      0.0000000000
1.2960282583          891.3833631834      0.3350000000      12.9563816827      1.4119702855      0.0000000000
1.3101392297          841.6801743121      0.3370000000      12.9648163094      1.4288270432      0.0000000000
1.3241598655          795.3085420507      0.3390000000      12.9730254337      1.4456118804      0.0000000000
1.3380882060          752.0135892427      0.3410000000      12.9810078461      1.4623219818      0.0000000000
1.3519223868          711.5621729823      0.3430000000      12.9887620065      1.4789546265      0.0000000000
1.3656606480          673.7407144531      0.3450000000      12.9962873596      1.4955072016      0.0000000000
1.3793013194          638.3535657223      0.3470000000      13.0035827518      1.5119771842      0.0000000000
1.3928428353          605.2211287317      0.3490000000      13.0106484251      1.5283621621      0.0000000000
1.4062837156          574.1786627871      0.3510000000      13.0174839614      1.5446598101      0.0000000000
1.4196225743          545.0748318901      0.3530000000      13.0240895586      1.5608679032      0.0000000000
1.4328581133          517.7704938233      0.3550000000      13.0304654965      1.5769843094      0.0000000000
1.4459891243          492.1376074406      0.3570000000      13.0366126341      1.5930069932      0.0000000000
1.4590144779          468.0584093917      0.3590000000      13.0425312986      1.6089340035      0.0000000000
1.4719331338          445.4243133725      0.3610000000      13.0482227940      1.6247634873      0.0000000000
1.4847441270          424.1352673609      0.3630000000      13.0536879623      1.6404936734      0.0000000000
1.4974465748          404.0989369070      0.3650000000      13.0589282653      1.6561228825      0.0000000000
1.5100396664          385.2301164967      0.3670000000      13.0639448273      1.6716495151      0.0000000000
1.5225226696          367.4500646159      0.3690000000      13.0687394357      1.6870720607      0.0000000000
1.5348949203          350.6860214389      0.3710000000      13.0733135589      1.7023890861      0.0000000000
1.5471558271          334.8706509378      0.3730000000      13.0776691286      1.7175992417      0.0000000000
1.5593048628          319.9416624157      0.3750000000      13.0818077543      1.7327012519      0.0000000000
1.5713415693          305.8413181299      0.3770000000      13.0857316333      1.7476939222      0.0000000000
1.5832655502          292.5161382164      0.3790000000      13.0894427577      1.7625761305      0.0000000000
1.5950764687          279.9165263759      0.3810000000      13.0929430555      1.7773468260      0.0000000000
1.6067740514          267.9964425486      0.3830000000      13.0962349987      1.7920050335      0.0000000000
1.6183580780          256.7131477005      0.3850000000      13.0993205938      1.8065498427      0.0000000000
1.6298283865          246.0269215363      0.3870000000      13.1022022955      1.8209804143      0.0000000000
1.6411848665          235.9008563750      0.3890000000      13.1048823879      1.8352959727      0.0000000000
1.6524274606          226.3006049831      0.3910000000      13.1073634276      1.8494958089      0.0000000000
1.6635561586          217.1941984736      0.3930000000      13.1096476544      1.8635792729      0.0000000000
1.6745710008          208.5518614604      0.3950000000      13.1117377429      1.8775457791      0.0000000000
1.6854720716          200.3458625842      0.3970000000      13.1136362041      1.8913947989      0.0000000000
1.6962594990          192.5503405130      0.3990000000      13.1153454797      1.9051258602      0.0000000000
1.7069334549          185.1411627631      0.4010000000      13.1168682321      1.9187385484      0.0000000000
1.7174941506          178.0958076633      0.4030000000      13.1182070493      1.9322325018      0.0000000000
1.7279418365          171.3932408468      0.4050000000      13.1193644904      1.9456074106      0.0000000000
1.7382768005          165.0138110525      0.4070000000      13.1203432033      1.9588630165      0.0000000000
1.7484993661          158.9391400885      0.4090000000      13.1211458570      1.9719991100      0.0000000000
1.7586098909          153.1520398002      0.4110000000      13.1217750622      1.9850155290      0.0000000000
1.7686087648          147.6364264043      0.4130000000      13.1222334724      1.9979121572      0.0000000000
1.7784964088          142.3772355285      0.4150000000      13.1225237173      2.0106889225      0.0000000000
1.7882732736          137.3603547103      0.4170000000      13.1226484402      2.0233457962      0.0000000000
1.7979398383          132.5725542729      0.4190000000      13.1226102858      2.0358827907      0.0000000000
1.8074966083          128.0014292524      0.4210000000      13.1224118751      2.0482999581      0.0000000000
1.8169441150          123.6353441059      0.4230000000      13.1220558450      2.0605973897      0.0000000000
1.8262829134          119.4633658738      0.4250000000      13.1215447953      2.0727752130      0.0000000000
1.8355135819          115.4752337365      0.4270000000      13.1208813051      2.0848335919      0.0000000000
1.8446367204          111.6613085496      0.4290000000      13.1200679870      2.0967727246      0.0000000000
1.8536529494          108.0125256845      0.4310000000      13.1191074255      2.1085928426      0.0000000000
1.8625629084          104.5203574481      0.4330000000      13.1180021449      2.1202942084      0.0000000000
1.8713672557          101.1767837545      0.4350000000      13.1167547106      2.1318771162      0.0000000000
1.8800666662           97.9742504372      0.4370000000      13.1153676268      2.1433418886      0.0000000000
1.8886618309           94.9056490374      0.4390000000      13.1138433879      2.1546888766      0.0000000000
1.8971534562           91.9642745991      0.4410000000      13.1121844405      2.1659184583      0.0000000000
1.9055422626           89.1438127771      0.4430000000      13.1103933030      2.1770310378      0.0000000000
1.9138289836           86.4383072450      0.4450000000      13.1084723909      2.1880270436      0.0000000000
1.9220143647           83.8421380481      0.4470000000      13.1064240529      2.1989069275      0.0000000000
1.9300991633           81.3499983079      0.4490000000      13.1042507414      2.2096711648      0.0000000000
1.9380841469           78.9568821136      0.4510000000      13.1019547907      2.2203202516      0.0000000000
1.9459700929           76.6580554003      0.4530000000      13.0995385412      2.2308547049      0.0000000000
1.9537577874           74.4490498893      0.4550000000      13.0970042871      2.2412750610      0.0000000000
1.9614480249           72.3256359240      0.4570000000      13.0943543486      2.2515818753      0.0000000000
1.9690416068           70.2838172740      0.4590000000      13.0915909067      2.2617757198      0.0000000000
1.9765393419           68.3198099844      0.4610000000      13.0887162854      2.2718571851      0.0000000000
1.9839420442           66.4300349997      0.4630000000      13.0857325720      2.2818268759      0.0000000000
1.9912505338           64.6110990113      0.4650000000      13.0826420405      2.2916854133      0.0000000000
1.9984656352           62.8597925672      0.4670000000      13.0794467810      2.3014334321      0.0000000000
2.0055881767           61.1730703770      0.4690000000      13.0761489014      2.3110715805      0.0000000000
2.0126189910           59.5480481950      0.4710000000      13.0727505493      2.3206005201      0.0000000000
2.0195589128           57.9819917172      0.4730000000      13.0692537082      2.3300209233      0.0000000000
2.0264087801           56.4723000292      0.4750000000      13.0656604738      2.3393334752      0.0000000000
2.0331694323           55.0165138969      0.4770000000      13.0619728165      2.3485388703      0.0000000000
2.0398417107           53.6122921275      0.4790000000      13.0581927589      2.3576378136      0.0000000000
2.0464264569           52.2574141334      0.4810000000      13.0543221450      2.3666310187      0.0000000000
2.0529245137           50.9497698965      0.4830000000      13.0503629768      2.3755192085      0.0000000000
2.0593367240           49.6873533070      0.4850000000      13.0463171360      2.3843031136      0.0000000000
2.0656639302           48.4682558105      0.4870000000      13.0421864793      2.3929834721      0.0000000000
2.0719069737           47.2906675010      0.4890000000      13.0379728119      2.4015610281      0.0000000000
2.0780666957           46.1528597152      0.4910000000      13.0336779732      2.4100365333      0.0000000000
2.0841439353           45.0531908895      0.4930000000      13.0293037426      2.4184107441      0.0000000000
2.0901395300           43.9900995909      0.4950000000      13.0248518294      2.4266844225      0.0000000000
2.0960543154           42.9620970577      0.4970000000      13.0203239719      2.4348583351      0.0000000000
2.1018891251           41.9677613157      0.4990000000      13.0157219478      2.4429332534      0.0000000000
2.1076447889           41.0057454792      0.5010000000      13.0110472999      2.4509099510      0.0000000000
2.1133221349           40.0747596570      0.5030000000      13.0063017443      2.4587892067      0.0000000000
2.1189219874           39.1735754635      0.5050000000      13.0014868936      2.4665718012      0.0000000000
2.1244451673           38.3010213765      0.5070000000      12.9966043470      2.4742585179      0.0000000000
2.1298924918           37.4559796904      0.5090000000      12.9916555636      2.4818501418      0.0000000000
