# M(M_sol)                 Lambda          n_Bc(fm^-3)         R(km)            m_B(M_sol)        m_Bquar/M_B
0.1515239142     49588551.5718360245      0.0900000000      24.0505321941      0.1517417920      0.0000000000
0.1558200496     43402230.7011149228      0.0920000000      23.3301300764      0.1560971560      0.0000000000
0.1600899313     38201516.6599467471      0.0940000000      22.6932898382      0.1604285620      0.0000000000
0.1643411892     33782735.0284362584      0.0960000000      22.1251139778      0.1647436917      0.0000000000
0.1685816010     29994101.9957960695      0.0980000000      21.6140156642      0.1690503978      0.0000000000
0.1728190327     26720166.8543795906      0.1000000000      21.1508590260      0.1733566439      0.0000000000
0.1770613977     23871598.7986732312      0.1020000000      20.7283493938      0.1776704621      0.0000000000
0.1813166209     21378213.3562920056      0.1040000000      20.3405994286      0.1819999167      0.0000000000
0.1855926219     19184178.5433400534      0.1060000000      19.9828116899      0.1863530864      0.0000000000
0.1898973015     17244562.3835139386      0.1080000000      19.6510436850      0.1907380508      0.0000000000
0.1942385285     15522824.7783873454      0.1100000000      19.3420298837      0.1951628769      0.0000000000
0.1986241361     13988983.6743944362      0.1120000000      19.0530484838      0.1996356153      0.0000000000
0.2030619168     12618221.1447600648      0.1140000000      18.7818164586      0.2041642954      0.0000000000
0.2075106486     11402400.9930337686      0.1160000000      18.5290866885      0.2087069031      0.0000000000
0.2119496554     10326205.9583844747      0.1180000000      18.2940951135      0.2132423230      0.0000000000
0.2164204068      9362545.3064547367      0.1200000000      18.0730572917      0.2178129423      0.0000000000
0.2209396413      8495354.4699941706      0.1220000000      17.8640467000      0.2224359452      0.0000000000
0.2255197386      7712292.0829120427      0.1240000000      17.6656479856      0.2271240956      0.0000000000
0.2301713049      7003352.0817157486      0.1260000000      17.4767411381      0.2318883733      0.0000000000
0.2349040103      6360218.4045188772      0.1280000000      17.2964127898      0.2367388274      0.0000000000
0.2397269277      5775861.4180743508      0.1300000000      17.1239050292      0.2416849226      0.0000000000
0.2446487272      5244268.4228478353      0.1320000000      16.9585835218      0.2467357372      0.0000000000
0.2496777660      4760246.0067456951      0.1340000000      16.7999141457      0.2519000555      0.0000000000
0.2548221534      4319268.0139212450      0.1360000000      16.6474446845      0.2571864352      0.0000000000
0.2600897802      3917358.6001727879      0.1380000000      16.5007912802      0.2626032372      0.0000000000
0.2654883416      3550998.5720002172      0.1400000000      16.3596268473      0.2681586500      0.0000000000
0.2710253392      3217056.6256829672      0.1420000000      16.2236726884      0.2738606926      0.0000000000
0.2767080913      2912724.6355696791      0.1440000000      16.0926898932      0.2797172259      0.0000000000
0.2825437228      2635473.5723654716      0.1460000000      15.9664736773      0.2857359422      0.0000000000
0.2885391660      2383012.1496981913      0.1480000000      15.8448471365      0.2919243680      0.0000000000
0.2947011403      2153257.6099143713      0.1500000000      15.7276571622      0.2982898424      0.0000000000
0.3010361543      1944308.1340465944      0.1520000000      15.6147702465      0.3048395212      0.0000000000
0.3075504920      1754421.5507139580      0.1540000000      15.5060686443      0.3115803620      0.0000000000
0.3142501702      1581998.6381010439      0.1560000000      15.4014480427      0.3185190817      0.0000000000
0.3211409718      1425567.1233991410      0.1580000000      15.3008140802      0.3256621906      0.0000000000
0.3282283996      1283770.3541509097      0.1600000000      15.2040807056      0.3330159453      0.0000000000
0.3355176718      1155356.7406213887      0.1620000000      15.1111681190      0.3405863440      0.0000000000
0.3430137063      1039170.9676170790      0.1640000000      15.0220011133      0.3483791103      0.0000000000
0.3507211078       934146.1420279960      0.1660000000      14.9365074289      0.3563996797      0.0000000000
0.3586441550       839297.9793736002      0.1680000000      14.8546171971      0.3646531860      0.0000000000
0.3667867897       753718.0969033354      0.1700000000      14.7762614279      0.3731444497      0.0000000000
0.3751526045       676569.2970189640      0.1720000000      14.7013714088      0.3818779637      0.0000000000
0.3837448337       607080.4533891730      0.1740000000      14.6298779939      0.3908578846      0.0000000000
0.3925663394       544542.7715039838      0.1760000000      14.5617116113      0.4000880157      0.0000000000
0.4016196285       488304.7602713641      0.1780000000      14.4968009587      0.4095718242      0.0000000000
0.4109068084       437769.4075382370      0.1800000000      14.4350739906      0.4193123937      0.0000000000
0.4204296068       392389.8845112042      0.1820000000      14.3764567333      0.4293124429      0.0000000000
0.4301893634       351666.2846997795      0.1840000000      14.3208737128      0.4395743156      0.0000000000
0.4401870274       315142.4662669085      0.1860000000      14.2682479682      0.4500999760      0.0000000000
0.4504231541       282402.8347126573      0.1880000000      14.2185010173      0.4608910024      0.0000000000
0.4608979078       253069.3404353785      0.1900000000      14.1715528758      0.4719485893      0.0000000000
0.4716110632       226798.6839750558      0.1920000000      14.1273225252      0.4832735450      0.0000000000
0.4825620053       203279.6152237344      0.1940000000      14.0857276697      0.4948662898      0.0000000000
0.4937497361       182230.3875431285      0.1960000000      14.0466853072      0.5067268601      0.0000000000
0.5051728785       163396.2904258039      0.1980000000      14.0101116380      0.5188549092      0.0000000000
0.5168296826       146547.4568184476      0.2000000000      13.9759226632      0.5312497117      0.0000000000
0.5287180313       131476.6561482786      0.2020000000      13.9440339066      0.5439101656      0.0000000000
0.5408354499       117997.3332740700      0.2040000000      13.9143610554      0.5568347996      0.0000000000
0.5531791143       105941.7544070473      0.2060000000      13.8868200090      0.5700217785      0.0000000000
0.5657458603        95159.2323478056      0.2080000000      13.8613269700      0.5834689093      0.0000000000
0.5785321950        85514.6045164287      0.2100000000      13.8377989289      0.5971736506      0.0000000000
0.5915343073        76886.6892572676      0.2120000000      13.8161536086      0.6111331194      0.0000000000
0.6047480803        69166.9601855160      0.2140000000      13.7963097237      0.6253441015      0.0000000000
0.6181691028        62258.2997694455      0.2160000000      13.7781871107      0.6398030601      0.0000000000
0.6317926851        56073.8605048735      0.2180000000      13.7617069899      0.6545061492      0.0000000000
0.6456138669        50536.0298749260      0.2200000000      13.7467917940      0.6694492179      0.0000000000
0.6596274391        45575.4853588969      0.2220000000      13.7333657572      0.6846278316      0.0000000000
0.6738279509        41130.3359396342      0.2240000000      13.7213544866      0.7000372748      0.0000000000
0.6882097301        37145.3618895775      0.2260000000      13.7106856028      0.7156725708      0.0000000000
0.7027668932        33571.2951225027      0.2280000000      13.7012881953      0.7315284883      0.0000000000
0.7174933653        30364.2060804695      0.2300000000      13.6930935621      0.7475995603      0.0000000000
0.7323828906        27484.9220610605      0.2320000000      13.6860346653      0.7638800922      0.0000000000
0.7474290523        24898.5246374801      0.2340000000      13.6800465674      0.7803641801      0.0000000000
0.7626252847        22573.8877964482      0.2360000000      13.6750662534      0.7970457211      0.0000000000
0.7779648905        20483.2684002229      0.2380000000      13.6710327787      0.8139184300      0.0000000000
0.7934410549        18601.9376880419      0.2400000000      13.6678871687      0.8309758510      0.0000000000
0.8090468609        16907.8539295008      0.2420000000      13.6655724772      0.8482113727      0.0000000000
0.8247753058        15381.3666091991      0.2440000000      13.6640338209      0.8656182432      0.0000000000
0.8406193145        14004.9555431769      0.2460000000      13.6632183286      0.8831895833      0.0000000000
0.8565717546        12762.9965776276      0.2480000000      13.6630751069      0.9009184002      0.0000000000
0.8726254507        11641.5523173322      0.2500000000      13.6635552577      0.9187976020      0.0000000000
0.8887731989        10628.1894524109      0.2520000000      13.6646119016      0.9368200117      0.0000000000
0.9050077780         9711.8085510125      0.2540000000      13.6661998751      0.9549783782      0.0000000000
0.9213219666         8882.5024492931      0.2560000000      13.6682761629      0.9732653942      0.0000000000
0.9377085538         8131.4210174793      0.2580000000      13.6707995057      0.9916737060      0.0000000000
0.9541603497         7450.6576685507      0.2600000000      13.6737303956      1.0101959254      0.0000000000
0.9706702014         6833.1441710475      0.2620000000      13.6770311895      1.0288246460      0.0000000000
0.9872310009         6272.5598912459      0.2640000000      13.6806659459      1.0475524514      0.0000000000
1.0038356975         5763.2497592238      0.2660000000      13.6846004172      1.0663719291      0.0000000000
1.0204773082         5300.1512496038      0.2680000000      13.6888019971      1.0852756815      0.0000000000
1.0371489268         4878.7302921294      0.2700000000      13.6932396603      1.1042563364      0.0000000000
1.0538437341         4494.9240627056      0.2720000000      13.6978839536      1.1233065579      0.0000000000
1.0705550056         4145.0895329306      0.2740000000      13.7027069229      1.1424190562      0.0000000000
1.0872761212         3825.9584303663      0.2760000000      13.7076820717      1.1615865980      0.0000000000
1.1040005706         3534.5969496595      0.2780000000      13.7127842790      1.1808020143      0.0000000000
1.1207219632         3268.3701196429      0.2800000000      13.7179897881      1.2000582111      0.0000000000
1.1374340308         3024.9094606469      0.2820000000      13.7232761973      1.2193481743      0.0000000000
1.1541306385         2802.0850229270      0.2840000000      13.7286223406      1.2386649825      0.0000000000
1.1708057859         2597.9800418856      0.2860000000      13.7340082318      1.2580018097      0.0000000000
1.1874536136         2410.8685519941      0.2880000000      13.7394150846      1.2773519338      0.0000000000
1.2040684090         2239.1952293089      0.2900000000      13.7448252613      1.2967087445      0.0000000000
1.2206446074         2081.5577443966      0.2920000000      13.7502221777      1.3160657464      0.0000000000
1.2371767977         1936.6906094693      0.2940000000      13.7555902794      1.3354165664      0.0000000000
1.2536597241         1803.4514396715      0.2960000000      13.7609150314      1.3547549578      0.0000000000
1.2700882891         1680.8079045690      0.2980000000      13.7661828130      1.3740748052      0.0000000000
1.2864575549         1567.8267141262      0.3000000000      13.7713809450      1.3933701279      0.0000000000
1.3027627462         1463.6633194496      0.3020000000      13.7764976085      1.4126350847      0.0000000000
1.3189992531         1367.5532193116      0.3040000000      13.7815218411      1.4318639798      0.0000000000
1.3351626207         1278.8036783704      0.3060000000      13.7864434324      1.4510512517      0.0000000000
1.3512485671         1196.7865902693      0.3080000000      13.7912529927      1.4701914969      0.0000000000
1.3672529709         1120.9320699555      0.3100000000      13.7959417563      1.4892794568      0.0000000000
1.3831718753         1050.7226745659      0.3120000000      13.8005017417      1.5083100247      0.0000000000
1.3990014868          985.6883447575      0.3140000000      13.8049256068      1.5272782463      0.0000000000
1.4147381735          925.4015967001      0.3160000000      13.8092065895      1.5461793194      0.0000000000
1.4303784656          869.4734826387      0.3180000000      13.8133385905      1.5650085974      0.0000000000
1.4459190520          817.5499215006      0.3200000000      13.8173159945      1.5837615863      0.0000000000
1.4613567806          769.3082203191      0.3220000000      13.8211338008      1.6024339479      0.0000000000
1.4766886545          724.4541636239      0.3240000000      13.8247874385      1.6210214965      0.0000000000
1.4919118313          682.7193653168      0.3260000000      13.8282728886      1.6395202012      0.0000000000
1.5070236201          643.8586728960      0.3280000000      13.8315865356      1.6579261832      0.0000000000
1.5220214791          607.6481156969      0.3300000000      13.8347252175      1.6762357161      0.0000000000
1.5369030133          573.8829907373      0.3320000000      13.8376862097      1.6944452238      0.0000000000
1.5516659710          542.3758736808      0.3340000000      13.8404671003      1.7125512794      0.0000000000
1.5663082417          512.9552334600      0.3360000000      13.8430658943      1.7305506039      0.0000000000
1.5808278525          485.4639105875      0.3380000000      13.8454809250      1.7484400641      0.0000000000
1.5952229655          459.7577798792      0.3400000000      13.8477108533      1.7662166708      0.0000000000
1.6094918739          435.7046450122      0.3420000000      13.8497546263      1.7838775769      0.0000000000
1.6236329994          413.1830891791      0.3440000000      13.8516115023      1.8014200749      0.0000000000
1.6376448863          392.0816248559      0.3460000000      13.8532809861      1.8188415918      0.0000000000
1.6515262074          372.2976998316      0.3480000000      13.8547628297      1.8361396985      0.0000000000
1.6652757464          353.7370262165      0.3500000000      13.8560570162      1.8533120893      0.0000000000
1.6788924045          336.3127766629      0.3520000000      13.8571637979      1.8703565919      0.0000000000
1.6923751937          319.9449808181      0.3540000000      13.8580835526      1.8872711606      0.0000000000
1.7057232345          304.5599179593      0.3560000000      13.8588169337      1.9040538747      0.0000000000
1.7189357507          290.0896143435      0.3580000000      13.8593646840      1.9207029344      0.0000000000
1.7320120681          276.4713182866      0.3600000000      13.8597278073      1.9372166596      0.0000000000
1.7449516090          263.6470911148      0.3620000000      13.8599073666      1.9535934850      0.0000000000
1.7577538907          251.5633772726      0.3640000000      13.8599046396      1.9698319594      0.0000000000
1.7704185203          240.1706707123      0.3660000000      13.8597210024      1.9859307408      0.0000000000
1.7829451929          229.4231598850      0.3680000000      13.8593579641      2.0018885946      0.0000000000
1.7953336875          219.2784345520      0.3700000000      13.8588171370      2.0177043904      0.0000000000
1.8075838636          209.6972052761      0.3720000000      13.8581002365      2.0333770985      0.0000000000
1.8196956587          200.6430539539      0.3740000000      13.8572090823      2.0489057879      0.0000000000
1.8316690843          192.0822093496      0.3760000000      13.8561455576      2.0642896223      0.0000000000
1.8435042236          183.9833219141      0.3780000000      13.8549116548      2.0795278583      0.0000000000
1.8552012280          176.3172875822      0.3800000000      13.8535094150      2.0946198412      0.0000000000
1.8667603141          169.0570631326      0.3820000000      13.8519409568      2.1095650034      0.0000000000
1.8781817607          162.1775065846      0.3840000000      13.8502084437      2.1243628603      0.0000000000
1.8894659066          155.6552349167      0.3860000000      13.8483140928      2.1390130086      0.0000000000
1.9006131470          149.4684779379      0.3880000000      13.8462601679      2.1535151226      0.0000000000
1.9116239311          143.5969699105      0.3900000000      13.8440489858      2.1678689518      0.0000000000
1.9224987596          138.0218242940      0.3920000000      13.8416828576      2.1820743186      0.0000000000
1.9332381821          132.7254370150      0.3940000000      13.8391641903      2.1961311149      0.0000000000
1.9438427941          127.6913806344      0.3960000000      13.8364953415      2.2100392998      0.0000000000
1.9543132354          122.9043302353      0.3980000000      13.8336787551      2.2237988972      0.0000000000
1.9646501869          118.3499744907      0.4000000000      13.8307168439      2.2374099926      0.0000000000
1.9748543689          114.0149389605      0.4020000000      13.8276120651      2.2508727318      0.0000000000
1.9849265385          109.8867257606      0.4040000000      13.8243668451      2.2641873172      0.0000000000
1.9948674878          105.9536414347      0.4060000000      13.8209836829      2.2773540064      0.0000000000
2.0046780413          102.2047488043      0.4080000000      13.8174650189      2.2903731091      0.0000000000
2.0143590546           98.6298052710      0.4100000000      13.8138133201      2.3032449855      0.0000000000
2.0239114116           95.2192162282      0.4120000000      13.8100310475      2.3159700436      0.0000000000
2.0333360234           91.9639936151      0.4140000000      13.8061206660      2.3285487373      0.0000000000
2.0426338259           88.8557025980      0.4160000000      13.8020845967      2.3409815642      0.0000000000
2.0518057784           85.8864398777      0.4180000000      13.7979253081      2.3532690636      0.0000000000
2.0608528619           83.0487796218      0.4200000000      13.7936452162      2.3654118147      0.0000000000
2.0697760772           80.3357558195      0.4220000000      13.7892467366      2.3774104341      0.0000000000
2.0785764434           77.7408189621      0.4240000000      13.7847322626      2.3892655743      0.0000000000
2.0872549968           75.2578162238      0.4260000000      13.7801041776      2.4009779220      0.0000000000
2.0958127891           72.8809588992      0.4280000000      13.7753648488      2.4125481964      0.0000000000
2.1042508860           70.6048055585      0.4300000000      13.7705166214      2.4239771468      0.0000000000
2.1125703660           68.4242308116      0.4320000000      13.7655618251      2.4352655517      0.0000000000
2.1207723191           66.3344119368      0.4340000000      13.7605027477      2.4464142167      0.0000000000
2.1288578455           64.3308024910      0.4360000000      13.7553416793      2.4574239731      0.0000000000
2.1368280545           62.4091189551      0.4380000000      13.7500808711      2.4682956765      0.0000000000
2.1446840635           60.5653232549      0.4400000000      13.7447225604      2.4790302054      0.0000000000
2.1524269965           58.7956062764      0.4420000000      13.7392689438      2.4896284592      0.0000000000
2.1600579839           57.0963717164      0.4440000000      13.7337222102      2.5000913578      0.0000000000
2.1675781605           55.4642265394      0.4460000000      13.7280845019      2.5104198390      0.0000000000
2.1749886653           53.8959645133      0.4480000000      13.7223579552      2.5206148588      0.0000000000
