# M(M_sol)                 Lambda          n_Bc(fm^-3)         R(km)            m_B(M_sol)        m_Bquar/M_B
0.1511853607     36241339.3131725416      0.1130000000      22.2732697419      0.1513905657      0.0000000000
0.1552448897     31517507.7333550453      0.1150000000      21.6166581839      0.1555047112      0.0000000000
0.1593352321     27529258.9107203670      0.1170000000      21.0286707235      0.1596525559      0.0000000000
0.1634735583     24126924.1854550950      0.1190000000      20.4971438250      0.1638515767      0.0000000000
0.1676757698     21199621.7156852223      0.1210000000      20.0127733996      0.1681180052      0.0000000000
0.1719487534     18667811.6662061960      0.1230000000      19.5691272280      0.1724589527      0.0000000000
0.1762972811     16469146.3366572354      0.1250000000      19.1611251259      0.1768794000      0.0000000000
0.1807252580     14553374.3678263351      0.1270000000      18.7846023633      0.1813834598      0.0000000000
0.1852361549     12879301.9831369743      0.1290000000      18.4360753939      0.1859748157      0.0000000000
0.1898331946     11412788.6469760090      0.1310000000      18.1125944996      0.1906569105      0.0000000000
0.1945194462     10125278.3196414188      0.1330000000      17.8116370047      0.1954330416      0.0000000000
0.1992978727      8992720.7497042846      0.1350000000      17.5310290472      0.2003064107      0.0000000000
0.2041713563      7994733.5235700281      0.1370000000      17.2688847778      0.2052801477      0.0000000000
0.2091427126      7113948.6262948057      0.1390000000      17.0235586733      0.2103573271      0.0000000000
0.2142146971      6335506.9569490366      0.1410000000      16.7936075150      0.2155409734      0.0000000000
0.2193900063      5646635.9081439199      0.1430000000      16.5777590942      0.2208340634      0.0000000000
0.2246712779      5036318.9741623411      0.1450000000      16.3748871627      0.2262395258      0.0000000000
0.2300610877      4495025.5809746003      0.1470000000      16.1839906111      0.2317602390      0.0000000000
0.2355619470      4014483.7565389392      0.1490000000      16.0041761838      0.2373990275      0.0000000000
0.2411763047      3587493.9271331206      0.1510000000      15.8346431651      0.2431586653      0.0000000000
0.2469065136      3207778.2830872405      0.1530000000      15.6746726052      0.2490418407      0.0000000000
0.2527548692      2869844.8085887129      0.1550000000      15.5236149283      0.2550511966      0.0000000000
0.2587235763      2568885.3128654747      0.1570000000      15.3808829534      0.2611892958      0.0000000000
0.2648147504      2300678.4057494388      0.1590000000      15.2459433944      0.2674586228      0.0000000000
0.2710304124      2061512.3869992616      0.1610000000      15.1183102920      0.2738615787      0.0000000000
0.2773724852      1848120.4956366604      0.1630000000      14.9975403148      0.2804004765      0.0000000000
0.2838427869      1657621.0093139943      0.1650000000      14.8832270456      0.2870775353      0.0000000000
0.2904430271      1487470.4732686840      0.1670000000      14.7749972742      0.2938948755      0.0000000000
0.2971748029      1335419.6563125837      0.1690000000      14.6725069767      0.3008545148      0.0000000000
0.3040395892      1199479.4788753479      0.1710000000      14.5754389943      0.3079583580      0.0000000000
0.3110387542      1077886.8381267593      0.1730000000      14.4834992743      0.3152082124      0.0000000000
0.3181735269       969079.4197150166      0.1750000000      14.3964150073      0.3226057548      0.0000000000
0.3254450132       871670.9588917485      0.1770000000      14.3139327073      0.3301525464      0.0000000000
0.3328541877       784429.9708481529      0.1790000000      14.2358156132      0.3378500252      0.0000000000
0.3404018906       706262.7241607350      0.1810000000      14.1618428952      0.3456995018      0.0000000000
0.3480888260       636196.4122448807      0.1830000000      14.0918075709      0.3537021569      0.0000000000
0.3559155592       573365.6571833105      0.1850000000      14.0255154984      0.3618590384      0.0000000000
0.3638825148       517000.0568746220      0.1870000000      13.9627842674      0.3701710588      0.0000000000
0.3719899757       466413.5575307640      0.1890000000      13.9034420059      0.3786389931      0.0000000000
0.3802380814       420994.8561923645      0.1910000000      13.8473267010      0.3872634768      0.0000000000
0.3886268276       380198.9981908078      0.1930000000      13.7942852200      0.3960450048      0.0000000000
0.3971560654       343540.0207277344      0.1950000000      13.7441726907      0.4049839293      0.0000000000
0.4058255015       310584.3750486756      0.1970000000      13.6968518181      0.4140804597      0.0000000000
0.4146346981       280945.1621354879      0.1990000000      13.6521924518      0.4233346616      0.0000000000
0.4235830729       254276.9121609600      0.2010000000      13.6100706635      0.4327464559      0.0000000000
0.4326699016       230271.1229348448      0.2030000000      13.5703689115      0.4423156201      0.0000000000
0.4418943170       208652.2056090985      0.2050000000      13.5329750567      0.4520417872      0.0000000000
0.4512553117       189173.8762202826      0.2070000000      13.4977823370      0.4619244467      0.0000000000
0.4607517393       171615.9584337084      0.2090000000      13.4646888641      0.4719629459      0.0000000000
0.4703823170       155781.5522950235      0.2110000000      13.4335972633      0.4821564904      0.0000000000
0.4801456272       141494.5569327240      0.2130000000      13.4044146824      0.4925041456      0.0000000000
0.4900401204       128597.3905191144      0.2150000000      13.3770521973      0.5030048389      0.0000000000
0.5000641184       116949.0013867579      0.2170000000      13.3514247983      0.5136573610      0.0000000000
0.5102158166       106423.1061517291      0.2190000000      13.3274510722      0.5244603682      0.0000000000
0.5204932878        96906.6152338743      0.2210000000      13.3050530466      0.5354123846      0.0000000000
0.5308944855        88298.1906486627      0.2230000000      13.2841559244      0.5465118054      0.0000000000
0.5414172480        80507.0298795048      0.2250000000      13.2646882007      0.5577568991      0.0000000000
0.5520593017        73451.7110939977      0.2270000000      13.2465811144      0.5691458109      0.0000000000
0.5628182658        67059.2394131824      0.2290000000      13.2297688729      0.5806765655      0.0000000000
0.5736916561        61264.1043710378      0.2310000000      13.2141881788      0.5923470711      0.0000000000
0.5846768893        56007.5274625802      0.2330000000      13.1997783941      0.6041551224      0.0000000000
0.5957712881        51236.7405895268      0.2350000000      13.1864813498      0.6160984052      0.0000000000
0.6069720853        46904.3519508669      0.2370000000      13.1742411171      0.6281744990      0.0000000000
0.6182764285        42967.7794814106      0.2390000000      13.1630040904      0.6403808821      0.0000000000
0.6296813852        39388.7528505145      0.2410000000      13.1527186992      0.6527149354      0.0000000000
0.6411839476        36132.8680024627      0.2430000000      13.1433355457      0.6651739466      0.0000000000
0.6527810373        33169.1713452626      0.2450000000      13.1348071211      0.6777551143      0.0000000000
0.6644695106        30469.8112103955      0.2470000000      13.1270878601      0.6904555529      0.0000000000
0.6762461632        28009.7139457289      0.2490000000      13.1201339875      0.7032722967      0.0000000000
0.6881077355        25766.2991705419      0.2510000000      13.1139035022      0.7162023045      0.0000000000
0.7000509173        23719.2195305146      0.2530000000      13.1083561106      0.7292424645      0.0000000000
0.7120723529        21850.1339934741      0.2550000000      13.1034530579      0.7423895982      0.0000000000
0.7241686462        20142.5023744341      0.2570000000      13.0991572712      0.7556404658      0.0000000000
0.7363363663        18581.4013763622      0.2590000000      13.0954331012      0.7689917709      0.0000000000
0.7485720493        17153.3610011227      0.2610000000      13.0922463922      0.7824401629      0.0000000000
0.7608722078        15846.2160110472      0.2630000000      13.0895643584      0.7959822451      0.0000000000
0.7732333325        14648.9721531794      0.2650000000      13.0873555819      0.8096145774      0.0000000000
0.7856518975        13551.6969956572      0.2670000000      13.0855899618      0.8233336806      0.0000000000
0.7981243652        12545.4039030896      0.2690000000      13.0842386110      0.8371360416      0.0000000000
0.8106471910        11621.9590387157      0.2710000000      13.0832739133      0.8510181179      0.0000000000
0.8232168266        10774.0048337488      0.2730000000      13.0826693328      0.8649763410      0.0000000000
0.8358297257         9994.8720288128      0.2750000000      13.0823995640      0.8790071221      0.0000000000
0.8484823472         9278.5192823934      0.2770000000      13.0824403158      0.8931068555      0.0000000000
0.8611711594         8619.4668839339      0.2790000000      13.0827683438      0.9072719230      0.0000000000
0.8738926443         8012.7462879789      0.2810000000      13.0833614555      0.9214986980      0.0000000000
0.8866433010         7453.8458794242      0.2830000000      13.0841984243      0.9357835495      0.0000000000
0.8994196494         6938.6689993263      0.2850000000      13.0852589490      0.9501228460      0.0000000000
0.9122182339         6463.4946589452      0.2870000000      13.0865235935      0.9645129589      0.0000000000
0.9250356264         6024.9384191074      0.2890000000      13.0879739094      0.9789502671      0.0000000000
0.9378684299         5619.9223172034      0.2910000000      13.0895921542      0.9934311597      0.0000000000
0.9507132812         5245.6459385307      0.2930000000      13.0913615322      1.0079520397      0.0000000000
0.9635668589         4899.5585010953      0.2950000000      13.0932659151      1.0225093329      0.0000000000
0.9764258671         4579.3366849452      0.2970000000      13.0952899892      1.0370994695      0.0000000000
0.9892870661         4282.8621542434      0.2990000000      13.0974191700      1.0517189192      0.0000000000
1.0021472563         4008.2032469075      0.3010000000      13.0996395451      1.0663641729      0.0000000000
1.0150032852         3753.5971390291      0.3030000000      13.1019378724      1.0810317508      0.0000000000
1.0278520497         3517.4338139215      0.3050000000      13.1043016173      1.0957182054      0.0000000000
1.0406904974         3298.2431765284      0.3070000000      13.1067187984      1.1104201235      0.0000000000
1.0535156295         3094.6811727306      0.3090000000      13.1091780696      1.1251341292      0.0000000000
1.0663245021         2905.5180697615      0.3110000000      13.1116686808      1.1398568861      0.0000000000
1.0791142271         2729.6294394160      0.3130000000      13.1141803886      1.1545850991      0.0000000000
1.0918819749         2565.9851311726      0.3150000000      13.1167035200      1.1693155169      0.0000000000
1.1046249747         2413.6417053132      0.3170000000      13.1192289214      1.1840449337      0.0000000000
1.1173405164         2271.7346528580      0.3190000000      13.1217478970      1.1987701912      0.0000000000
1.1300259477         2139.4705644120      0.3210000000      13.1242522846      1.2134881763      0.0000000000
1.1426786887         2016.1219660053      0.3230000000      13.1267343204      1.2281958380      0.0000000000
1.1552962127         1901.0206460443      0.3250000000      13.1291867225      1.2428901659      0.0000000000
1.1678760600         1793.5529366863      0.3270000000      13.1316025838      1.2575682068      0.0000000000
1.1804158355         1693.1548305796      0.3290000000      13.1339754497      1.2722270621      0.0000000000
1.1929132089         1599.3076340101      0.3310000000      13.1362992266      1.2868638891      0.0000000000
1.2053659148         1511.5339539141      0.3330000000      13.1385682108      1.3014759017      0.0000000000
1.2177717535         1429.3945400339      0.3350000000      13.1407770028      1.3160603712      0.0000000000
1.2301285908         1352.4846059982      0.3370000000      13.1429206252      1.3306146278      0.0000000000
1.2424343582         1280.4314628669      0.3390000000      13.1449943687      1.3451360601      0.0000000000
1.2546870526         1212.8909010587      0.3410000000      13.1469938582      1.3596221170      0.0000000000
1.2668847365         1149.5458689659      0.3430000000      13.1489150315      1.3740703070      0.0000000000
1.2790255376         1090.1033893610      0.3450000000      13.1507540631      1.3884781994      0.0000000000
1.2911076486         1034.2930874591      0.3470000000      13.1525074639      1.4028434242      0.0000000000
1.3031293266          981.8650281175      0.3490000000      13.1541719700      1.4171636727      0.0000000000
1.3150888932          932.5881570059      0.3510000000      13.1557445944      1.4314366971      0.0000000000
1.3269847334          886.2487392744      0.3530000000      13.1572225704      1.4456603111      0.0000000000
1.3388152954          842.6490175270      0.3550000000      13.1586033566      1.4598323896      0.0000000000
1.3505790899          801.6057877023      0.3570000000      13.1598846525      1.4739508688      0.0000000000
1.3622746894          762.9493930776      0.3590000000      13.1610643573      1.4880137455      0.0000000000
1.3739007275          726.5226160827      0.3610000000      13.1621405635      1.5020190779      0.0000000000
1.3854558980          692.1794672165      0.3630000000      13.1631115524      1.5159649845      0.0000000000
1.3969389546          659.7847406597      0.3650000000      13.1639757878      1.5298496438      0.0000000000
1.4083487091          629.2127665745      0.3670000000      13.1647319290      1.5436712945      0.0000000000
1.4196840316          600.3468725455      0.3690000000      13.1653787711      1.5574282346      0.0000000000
1.4309438526          573.0785990965      0.3710000000      13.1659152766      1.5711188254      0.0000000000
1.4421271471          547.3071856146      0.3730000000      13.1663405546      1.5847414732      0.0000000000
1.4532329565          522.9388724914      0.3750000000      13.1666538592      1.5982946553      0.0000000000
1.4642603723          499.8863729947      0.3770000000      13.1668545676      1.6117769020      0.0000000000
1.4752085387          478.0684832102      0.3790000000      13.1669422054      1.6251868001      0.0000000000
1.4860766521          457.4094991963      0.3810000000      13.1669164024      1.6385229921      0.0000000000
1.4968639594          437.8389178100      0.3830000000      13.1667768982      1.6517841756      0.0000000000
1.5075697574          419.2909811516      0.3850000000      13.1665235630      1.6649691028      0.0000000000
1.5181933914          401.7043384669      0.3870000000      13.1661563562      1.6780765792      0.0000000000
1.5287342543          385.0217585591      0.3890000000      13.1656753255      1.6911054634      0.0000000000
1.5391917856          369.1897916950      0.3910000000      13.1650806252      1.7040546657      0.0000000000
1.5495654699          354.1585028668      0.3930000000      13.1643724994      1.7169231477      0.0000000000
1.5598548361          339.8812215124      0.3950000000      13.1635512515      1.7297099210      0.0000000000
1.5700594562          326.3143452663      0.3970000000      13.1626172825      1.7424140470      0.0000000000
1.5801789443          313.4170323534      0.3990000000      13.1615710630      1.7550346354      0.0000000000
1.5902129554          301.1511404740      0.4010000000      13.1604131322      1.7675708433      0.0000000000
1.6001611841          289.4808731126      0.4030000000      13.1591440794      1.7800218746      0.0000000000
1.6100233639          278.3727594370      0.4050000000      13.1577645665      1.7923869792      0.0000000000
1.6197992658          267.7954143732      0.4070000000      13.1562753173      1.8046654514      0.0000000000
1.6294886975          257.7194317691      0.4090000000      13.1546770947      1.8168566297      0.0000000000
1.6390915019          248.1171933329      0.4110000000      13.1529707291      1.8289598955      0.0000000000
1.6486075564          238.9628421721      0.4130000000      13.1511570588      1.8409746719      0.0000000000
1.6580367718          230.2320564071      0.4150000000      13.1492370159      1.8529004236      0.0000000000
1.6673790910          221.9020279110      0.4170000000      13.1472115431      1.8647366550      0.0000000000
1.6766344884          213.9513276703      0.4190000000      13.1450816060      1.8764829099      0.0000000000
1.6858029683          206.3597793501      0.4210000000      13.1428482489      1.8881387703      0.0000000000
1.6948845646          199.1084759110      0.4230000000      13.1405124982      1.8997038552      0.0000000000
1.7038793391          192.1795743232      0.4250000000      13.1380754449      1.9111778205      0.0000000000
1.7127873812          185.5563318265      0.4270000000      13.1355381895      1.9225603572      0.0000000000
1.7216088062          179.2229487430      0.4290000000      13.1329018628      1.9338511909      0.0000000000
1.7303437553          173.1645572712      0.4310000000      13.1301676110      1.9450500809      0.0000000000
1.7389923935          167.3671587332      0.4330000000      13.1273366126      1.9561568191      0.0000000000
1.7475549100          161.8175712360      0.4350000000      13.1244100428      1.9671712293      0.0000000000
1.7560315161          156.5033294295      0.4370000000      13.1213891196      1.9780931661      0.0000000000
1.7644224452          151.4127173184      0.4390000000      13.1182750557      1.9889225145      0.0000000000
1.7727279514          146.5346396551      0.4410000000      13.1150690850      1.9996591881      0.0000000000
1.7809483090          141.8586569312      0.4430000000      13.1117724469      2.0103031294      0.0000000000
1.7890838117          137.3748994456      0.4450000000      13.1083863966      2.0208543082      0.0000000000
1.7971347712          133.0740380441      0.4470000000      13.1049121996      2.0313127207      0.0000000000
1.8051015172          128.9472575310      0.4490000000      13.1013511026      2.0416783893      0.0000000000
1.8129843964          124.9862486351      0.4510000000      13.0977043966      2.0519513611      0.0000000000
1.8207837713          121.1831128499      0.4530000000      13.0939733573      2.0621317076      0.0000000000
1.8285000202          117.5304126944      0.4550000000      13.0901592469      2.0722195239      0.0000000000
1.8361335357          114.0210942490      0.4570000000      13.0862633624      2.0822149274      0.0000000000
1.8436847248          110.6484789646      0.4590000000      13.0822869773      2.0921180577      0.0000000000
1.8511540076          107.4062488356      0.4610000000      13.0782313688      2.1019290755      0.0000000000
1.8585418171          104.2884189290      0.4630000000      13.0740978273      2.1116481618      0.0000000000
1.8658485979          101.2893101986      0.4650000000      13.0698876257      2.1212755176      0.0000000000
1.8730748066           98.4035436661      0.4670000000      13.0656020436      2.1308113627      0.0000000000
1.8802209103           95.6260193321      0.4690000000      13.0612423359      2.1402559353      0.0000000000
1.8872873861           92.9518986442      0.4710000000      13.0568097838      2.1496094913      0.0000000000
