# M(M_sol)                Lambda           n_Bc(fm^-3)          R(km)           m_B(M_sol)       m_Bquar/M_B
0.1566194310     41050104.4251666069      0.0843900000      22.9993979558      0.1568978193      0.0000000000
0.1631638836     34338870.7649397552      0.0863900000      22.1536350618      0.1635385053      0.0000000000
0.1696341478     29058369.5311419070      0.0883900000      21.4453592042      0.1701099580      0.0000000000
0.1760392692     24824753.6418217085      0.0903900000      20.8427625756      0.1766210941      0.0000000000
0.1823883314     21377495.3460568972      0.0923900000      20.3231247886      0.1830809193      0.0000000000
0.1886903746     18533707.2382728197      0.0943900000      19.8697835535      0.1894984411      0.0000000000
0.1949543468     16161453.2449475136      0.0963900000      19.4702436530      0.1958826147      0.0000000000
0.2011890585     14163362.9367632400      0.0983900000      19.1149552276      0.2022422940      0.0000000000
0.2074031684     12466176.0526505318      0.1003900000      18.7964974137      0.2085862139      0.0000000000
0.2136051615     11013845.7560502533      0.1023900000      18.5090200629      0.2149229661      0.0000000000
0.2198033498      9762861.1263003815      0.1043900000      18.2478518079      0.2212609976      0.0000000000
0.2260058628      8679002.7282009106      0.1063900000      18.0092202821      0.2276085993      0.0000000000
0.2322206530      7735048.4719535606      0.1083900000      17.7900480994      0.2339739107      0.0000000000
0.2384554963      6909108.5031146435      0.1103900000      17.5878018705      0.2403649182      0.0000000000
0.2447179907      6183416.9125157678      0.1123900000      17.4003790371      0.2467894540      0.0000000000
0.2509132179      5553164.1837587887      0.1143900000      17.2287437452      0.2531500814      0.0000000000
0.2570343059      5004003.0194840776      0.1163900000      17.0711518835      0.2594395627      0.0000000000
0.2631362998      4519390.6877349606      0.1183900000      16.9246677044      0.2657143372      0.0000000000
0.2692401648      4089088.9109123051      0.1203900000      16.7876788549      0.2719959379      0.0000000000
0.2753605280      3705247.5629091929      0.1223900000      16.6589764320      0.2782994350      0.0000000000
0.2815092842      3361567.6696165432      0.1243900000      16.5375950064      0.2846371301      0.0000000000
0.2876968104      3052879.2504573758      0.1263900000      16.4227412088      0.2910197972      0.0000000000
0.2939325079      2774874.9679887276      0.1283900000      16.3137523921      0.2974572378      0.0000000000
0.3002250875      2523927.9144557086      0.1303900000      16.2100692361      0.3039585719      0.0000000000
0.3065827368      2296954.7246449804      0.1323900000      16.1112153661      0.3105324089      0.0000000000
0.3130132204      2091314.6252881128      0.1343900000      16.0167833262      0.3171869493      0.0000000000
0.3195239527      1904730.7862958282      0.1363900000      15.9264224476      0.3239300599      0.0000000000
0.3261220382      1735227.2816655450      0.1383900000      15.8398300006      0.3307693145      0.0000000000
0.3328143052      1581079.2536206932      0.1403900000      15.7567434816      0.3377120280      0.0000000000
0.3396073332      1440773.8744024604      0.1423900000      15.6769348720      0.3447652849      0.0000000000
0.3465074625      1312976.8289784396      0.1443900000      15.6002050867      0.3519359494      0.0000000000
0.3535208043      1196506.9576251418      0.1463900000      15.5263806182      0.3592306749      0.0000000000
0.3606532486      1090313.3305807651      0.1483900000      15.4553091011      0.3666559129      0.0000000000
0.3679104702       993457.5067860372      0.1503900000      15.3868567832      0.3742179186      0.0000000000
0.3752979224       905098.5132333938      0.1523900000      15.3209055732      0.3819227453      0.0000000000
0.3828208453       824480.3157541137      0.1543900000      15.2573514409      0.3897762516      0.0000000000
0.3904842561       750920.8665808848      0.1563900000      15.1961018023      0.3977840923      0.0000000000
0.3982929501       683803.3663637064      0.1583900000      15.1370742069      0.4059517190      0.0000000000
0.4062514998       622568.5475232567      0.1603900000      15.0801946937      0.4142843788      0.0000000000
0.4143642223       566708.4263427980      0.1623900000      15.0253967336      0.4227870807      0.0000000000
0.4226352238       515760.2373860019      0.1643900000      14.9726199511      0.4314646410      0.0000000000
0.4310683538       469302.3287000777      0.1663900000      14.9218092790      0.4403216358      0.0000000000
0.4396672118       426949.4556193059      0.1683900000      14.8729138819      0.4493624071      0.0000000000
0.4484351437       388349.4559530106      0.1703900000      14.8258865647      0.4585910587      0.0000000000
0.4573752351       353180.1300199823      0.1723900000      14.7806833018      0.4680114485      0.0000000000
0.4664902992       321146.3754463786      0.1743900000      14.7372622710      0.4776271754      0.0000000000
0.4757828820       291977.8033127670      0.1763900000      14.6955836560      0.4874415835      0.0000000000
0.4852552497       265426.6293964495      0.1783900000      14.6556091835      0.4974577484      0.0000000000
0.4949093881       241265.6288545502      0.1803900000      14.6173016643      0.5076784750      0.0000000000
0.5047469905       219286.5708414926      0.1823900000      14.5806247942      0.5181062838      0.0000000000
0.5147694761       199298.4572955515      0.1843900000      14.5455427408      0.5287434296      0.0000000000
0.5249779600       181126.3217779938      0.1863900000      14.5120202500      0.5395918677      0.0000000000
0.5353732663       164609.7594772276      0.1883900000      14.4800219871      0.5506532665      0.0000000000
0.5459559222       149601.9239943280      0.1903900000      14.4495128219      0.5619289998      0.0000000000
0.5567261646       135968.3179963635      0.1923900000      14.4204577245      0.5734201521      0.0000000000
0.5676839287       123585.8505988248      0.1943900000      14.3928211417      0.5851275042      0.0000000000
0.5788288574       112341.9798995301      0.1963900000      14.3665676789      0.5970515420      0.0000000000
0.5901602991       102133.8030808385      0.1983900000      14.3416615190      0.6091924515      0.0000000000
0.6016773103        92867.3196532420      0.2003900000      14.3180666456      0.6215501200      0.0000000000
0.6133786596        84456.7087070298      0.2023900000      14.2957468160      0.6341241374      0.0000000000
0.6252628310        76823.6580223593      0.2043900000      14.2746655083      0.6469137983      0.0000000000
0.6373280277        69896.7699293677      0.2063900000      14.2547860250      0.6599181031      0.0000000000
0.6495721764        63610.9746120780      0.2083900000      14.2360714710      0.6731357604      0.0000000000
0.6619929359        57907.0137066201      0.2103900000      14.2184848333      0.6865651937      0.0000000000
0.6745877000        52730.9494875678      0.2123900000      14.2019889181      0.7002045417      0.0000000000
0.6873536082        48033.7155532826      0.2143900000      14.1865466143      0.7140516678      0.0000000000
0.7002875492        43770.7110859917      0.2163900000      14.1721207432      0.7281041608      0.0000000000
0.7133861716        39901.4043633648      0.2183900000      14.1586742333      0.7423593438      0.0000000000
0.7266458923        36388.9846343207      0.2203900000      14.1461700828      0.7568142808      0.0000000000
0.7400629055        33200.0361561483      0.2223900000      14.1345715358      0.7714657838      0.0000000000
0.7536331916        30304.2411094049      0.2243900000      14.1238420503      0.7863104197      0.0000000000
0.7673525279        27674.1006921790      0.2263900000      14.1139453573      0.8013445192      0.0000000000
0.7812164986        25284.6840912172      0.2283900000      14.1048456048      0.8165641851      0.0000000000
0.7952205064        23113.3944232454      0.2303900000      14.0965073261      0.8319653025      0.0000000000
0.8093597797        21139.7601935516      0.2323900000      14.0888954058      0.8475435442      0.0000000000
0.8236293906        19345.2359168130      0.2343900000      14.0819754198      0.8632943877      0.0000000000
0.8380242601        17713.0274245338      0.2363900000      14.0757133322      0.8792131183      0.0000000000
0.8525391715        16227.9328776584      0.2383900000      14.0700757558      0.8952948421      0.0000000000
0.8671687837        14876.1876542053      0.2403900000      14.0650299693      0.9115344976      0.0000000000
0.8819076405        13645.3338728868      0.2423900000      14.0605437950      0.9279268646      0.0000000000
0.8967501843        12524.0984640328      0.2443900000      14.0565858882      0.9444665765      0.0000000000
0.9116907659        11502.2786147499      0.2463900000      14.0531255132      0.9611481295      0.0000000000
0.9267236586        10570.6412981918      0.2483900000      14.0501327395      0.9779658964      0.0000000000
0.9418430678         9720.8328541765      0.2503900000      14.0475783977      0.9949141355      0.0000000000
0.9570431433         8945.2926665773      0.2523900000      14.0454340717      1.0119870025      0.0000000000
0.9723179902         8237.1792662842      0.2543900000      14.0436721599      1.0291785612      0.0000000000
0.9876616811         7590.3003525822      0.2563900000      14.0422658937      1.0464827959      0.0000000000
1.0030682660         6999.0514141431      0.2583900000      14.0411892829      1.0638936211      0.0000000000
1.0185317826         6458.3586268272      0.2603900000      14.0404172041      1.0814048918      0.0000000000
1.0340462687         5963.6281007483      0.2623900000      14.0399253069      1.0990104166      0.0000000000
1.0496057709         5510.6998154106      0.2643900000      14.0396901795      1.1167039668      0.0000000000
1.0652043533         5095.8053121189      0.2663900000      14.0396890787      1.1344792852      0.0000000000
1.0808361101         4715.5315185282      0.2683900000      14.0399002730      1.1523300999      0.0000000000
1.0964951720         4366.7842642403      0.2703900000      14.0403027114      1.1702501314      0.0000000000
1.1121757160         4046.7596003153      0.2723900000      14.0408762229      1.1882331025      0.0000000000
1.1278719732         3752.9149460773      0.2743900000      14.0416014286      1.2062727484      0.0000000000
1.1435782389         3482.9440022054      0.2763900000      14.0424598056      1.2243628268      0.0000000000
1.1592888768         3234.7544386126      0.2783900000      14.0434335430      1.2424971239      0.0000000000
1.1749983280         3006.4471787069      0.2803900000      14.0445056244      1.2606694640      0.0000000000
1.1907011186         2796.2978728677      0.2823900000      14.0456598205      1.2788737192      0.0000000000
1.2063918639         2602.7405441659      0.2843900000      14.0468806219      1.2971038142      0.0000000000
1.2220652765         2424.3517807335      0.2863900000      14.0481532833      1.3153537368      0.0000000000
1.2377161694         2259.8383295926      0.2883900000      14.0494637564      1.3336175416      0.0000000000
1.2533394630         2108.0236618562      0.2903900000      14.0507987069      1.3518893589      0.0000000000
1.2689301890         1967.8374360682      0.2923900000      14.0521454430      1.3701634003      0.0000000000
1.2844834943         1838.3055959173      0.2943900000      14.0534920270      1.3884339646      0.0000000000
1.2999946445         1718.5409607514      0.2963900000      14.0548270576      1.4066954416      0.0000000000
1.2995751903         1721.6324383220      0.6468358087      14.0547664213      1.4062010841      0.0000067066
1.2792914283         1822.6584156691      0.6504663836      14.0091306515      1.3823280113      0.0063873631
1.2578971599         1892.1043289632      0.6540768067      13.9273023411      1.3572041678      0.0183293301
1.2387602653         1920.9789211563      0.6576674097      13.8266961479      1.3347717259      0.0335131406
1.2222533559         1912.5866326132      0.6612385157      13.7139776048      1.3154468476      0.0510429822
1.2085235439         1871.2188773436      0.6647904387      13.5935014837      1.2993857792      0.0703145639
1.1974958223         1802.8906970521      0.6683234847      13.4683524686      1.2864899813      0.0908517111
1.1891955910         1713.1720204882      0.6718379515      13.3412809182      1.2767833958      0.1122536717
1.1833242581         1609.2256347076      0.6753341291      13.2139570487      1.2699151310      0.1342992075
1.1796652260         1496.9518368702      0.6788123000      13.0878138801      1.2656333089      0.1564617889
1.1780614064         1381.0943255370      0.6822727398      12.9641322082      1.2637580456      0.1787788171
1.1782951484         1265.6991887088      0.6857157168      12.8437599785      1.2640399273      0.2008808803
1.1801522642         1153.8050022566      0.6891414928      12.7272886569      1.2662341948      0.2227116253
1.1836473219         1047.0131874024      0.6925503230      12.6158751313      1.2703663098      0.2439951596
1.1881898192          947.6765986561      0.6959424565      12.5083592106      1.2757469834      0.2648747519
1.1940973561          855.4805102737      0.6993181361      12.4066451990      1.2827597779      0.2849828693
1.2008232423          771.4422884627      0.7026775992      12.3092825655      1.2907641520      0.3045648140
1.2084403566          695.1172816030      0.7060210770      12.2170411178      1.2998531942      0.3233654872
1.2167583869          626.2934417836      0.7093487957      12.1295464043      1.3098064571      0.3414100642
1.2256698984          564.5043213225      0.7126609760      12.0466552535      1.3205009465      0.3587822372
1.2350481798          509.2267400588      0.7159578337      11.9680470077      1.3317893290      0.3754667064
1.2448572657          459.8530964863      0.7192395793      11.8937514565      1.3436324153      0.3914822788
1.2550477065          415.8097111318      0.7225064188      11.8236970386      1.3559744025      0.4067246151
1.2653634042          376.6166745453      0.7257585535      11.7567191489      1.3685076077      0.4213824803
1.2760410633          341.6578393430      0.7289961803      11.6940939458      1.3815218825      0.4353338022
1.2869117439          310.5095110192      0.7322194914      11.6350360133      1.3948143456      0.4485823055
1.2977201515          282.7693354345      0.7354286753      11.5782033632      1.4080735000      0.4614356634
1.3087712134          257.9976799211      0.7386239160      11.5252559192      1.4216741909      0.4735820975
1.3198069992          235.8774155604      0.7418053937      11.4747905179      1.4353003893      0.4851933288
1.3308479885          216.0938418203      0.7449732847      11.4269011338      1.4489772944      0.4963216914
1.3418247226          198.3739003424      0.7481277616      11.3811614580      1.4626185775      0.5070149036
1.3528379555          182.4777057062      0.7512689934      11.3381328782      1.4763493171      0.5171898593
1.3637327277          168.1925548246      0.7543971456      11.2968665002      1.4899760111      0.5269673582
1.3746052303          155.3362263422      0.7575123802      11.2578992190      1.5036182317      0.5362699669
1.3853854656          143.7441154471      0.7606148558      11.2207676152      1.5171876687      0.5453263178
1.3960077322          133.2692294599      0.7637047281      11.1850121599      1.5306003538      0.5537603639
1.4065613712          123.7926127430      0.7667821493      11.1511424966      1.5439679283      0.5620122151
1.4169801021          115.2001191338      0.7698472689      11.1186915432      1.5572054910      0.5698954718
1.4272745015          107.3963068986      0.7729002330      11.0876750863      1.5703251918      0.5774067161
1.4373825378          100.2911428725      0.7759411853      11.0576335003      1.5832464394      0.5847599818
1.4473860897           93.8173146761      0.7789702663      11.0290509097      1.5960724347      0.5917361037
1.4572920197           87.9100915091      0.7819876141      11.0019299429      1.6088110681      0.5984105778
1.4670390697           82.5059169217      0.7849933639      10.9758106275      1.6213823827      0.6048454134
1.4766361519           77.5543403291      0.7879876485      10.9507004832      1.6337963788      0.6112061455
1.4860264086           73.0046302373      0.7909705981      10.9261532976      1.6459777927      0.6171287051
1.4952843933           68.8235769607      0.7939423404      10.9026305324      1.6580216737      0.6229002419
1.5044165333           64.9760786631      0.7969030008      10.8801323280      1.6699352197      0.6284299460
1.5133672514           61.4251463561      0.7998527024      10.8582179048      1.6816445205      0.6338524398
1.5222661346           58.1544246080      0.8027915659      10.8377670134      1.6933180342      0.6390637008
1.5309365068           55.1222801176      0.8057197100      10.8174676554      1.7047228090      0.6440633406
1.5393888003           52.3072843936      0.8086372511      10.7973362416      1.7158704305      0.6488512144
1.5478055443           49.7055799114      0.8115443036      10.7786621130      1.7270004612      0.6534310155
1.5560175239           47.2838362490      0.8144409798      10.7601627154      1.7378881850      0.6579614050
1.5640892448           45.0314981466      0.8173273899      10.7422682345      1.7486175464      0.6623841727
1.5720263961           42.9343185763      0.8202036425      10.7249796156      1.7591949174      0.6665552827
1.5798341411           40.9794673584      0.8230698439      10.7082967826      1.7696260627      0.6707785771
1.5874641414           39.1509908805      0.8259260988      10.6918114962      1.7798450936      0.6746347579
1.5949234068           37.4387961508      0.8287725101      10.6755321769      1.7898598755      0.6785266481
1.6023219655           35.8419190654      0.8316091789      10.6602686574      1.7998171562      0.6822582584
1.6095596615           34.3434014997      0.8344362044      10.6452129884      1.8095812967      0.6858688604
1.6166424995           32.9357529945      0.8372536844      10.6303715559      1.8191590677      0.6893587963
1.6236256731           31.6158684753      0.8400617149      10.6161416452      1.8286240618      0.6927453332
1.6304636608           30.3736065212      0.8428603903      10.6021307316      1.8379136223      0.6960818860
1.6372098492           29.2067902410      0.8456498037      10.5887290016      1.8470993247      0.6992467875
1.6437720388           28.1032092773      0.8484300462      10.5751664355      1.8560545647      0.7024142699
1.6502507283           27.0649883014      0.8512012077      10.5622150527      1.8649153940      0.7054116741
1.6566021697           26.0843473064      0.8539633768      10.5494926435      1.8736212054      0.7083601542
1.6628306276           25.1573331278      0.8567166402      10.5370021032      1.8821768807      0.7112596063
1.6689401714           24.2803120220      0.8594610837      10.5247458131      1.8905870900      0.7140423412
1.6749346769           23.4499504553      0.8621967915      10.5127260839      1.8988562913      0.7167765919
1.6808618776           22.6659743561      0.8649238464      10.5013109393      1.9070496670      0.7194129810
1.6866367422           21.9198709960      0.8676423301      10.4897670126      1.9150488996      0.7219840075
1.6923071873           21.2119141806      0.8703523227      10.4784642503      1.9229193947      0.7245073609
