# M(M_sol)                Lambda           n_Bc(fm^-3)          R(km)           m_B(M_sol)       m_Bquar/M_B
0.1507080706     12064245.6734613013      0.1681200000      16.6021853071      0.1509475424      0.0000000000
0.1580996261      9590778.1683338564      0.1701200000      15.9869340911      0.1584528895      0.0000000000
0.1658855536      7656368.2234778740      0.1721200000      15.4561392176      0.1663686779      0.0000000000
0.1740665852      6136063.9437473109      0.1741200000      14.9970137134      0.1746971014      0.0000000000
0.1826412533      4936383.4459642647      0.1761200000      14.5988833396      0.1834381652      0.0000000000
0.1916076934      3986014.0628995267      0.1781200000      14.2529449659      0.1925915186      0.0000000000
0.2009608031      3231587.4847364649      0.1801200000      13.9515312966      0.2021535293      0.0000000000
0.2107025240      2628728.4674425428      0.1821200000      13.6891009376      0.2121278434      0.0000000000
0.2208256867      2146654.1322534331      0.1841200000      13.4600135342      0.2225087806      0.0000000000
0.2313297660      1758904.8647636594      0.1861200000      13.2602886686      0.2332975340      0.0000000000
0.2422097127      1446248.6100043186      0.1881200000      13.0860976643      0.2444906669      0.0000000000
0.2534614252      1193233.9712642978      0.1901200000      12.9343172919      0.2560857448      0.0000000000
0.2650781146       988252.1993467364      0.1921200000      12.8020074090      0.2680775647      0.0000000000
0.2770594181       820726.9730750913      0.1941200000      12.6873975260      0.2804676218      0.0000000000
0.2893955152       684093.2710629428      0.1961200000      12.5879782476      0.2932475911      0.0000000000
0.3020828351       571948.2142397860      0.1981200000      12.5022751574      0.3064156610      0.0000000000
0.3151132193       479859.7052823461      0.2001200000      12.4285565633      0.3199652345      0.0000000000
0.3284820995       403753.7150803207      0.2021200000      12.3657325442      0.3338934729      0.0000000000
0.3421815542       340753.5168059556      0.2041200000      12.3125370511      0.3481940196      0.0000000000
0.3562042786       288434.1545520561      0.2061200000      12.2679540190      0.3628611529      0.0000000000
0.3705417780       244917.7018152746      0.2081200000      12.2309936272      0.3778878777      0.0000000000
0.3851877191       208485.6289065464      0.2101200000      12.2010452520      0.3932694660      0.0000000000
0.4001313713       178053.0335311505      0.2121200000      12.1771358643      0.4089965062      0.0000000000
0.4153657308       152459.5211722571      0.2141200000      12.1588148407      0.4250635067      0.0000000000
0.4308818627       130874.1005308554      0.2161200000      12.1455155153      0.4414628952      0.0000000000
0.4466698765       112651.6392868851      0.2181200000      12.1366548256      0.4581860362      0.0000000000
0.4627204080        97223.5299774768      0.2201200000      12.1317845812      0.4752248084      0.0000000000
0.4790238678        84124.2216143510      0.2221200000      12.1305012475      0.4925708001      0.0000000000
0.4955704643        72971.4238703820      0.2241200000      12.1324408228      0.5102153283      0.0000000000
0.5123496378        63469.1277078265      0.2261200000      12.1372086626      0.5281488209      0.0000000000
0.5293524856        55317.1563134324      0.2281200000      12.1446403271      0.5463634371      0.0000000000
0.5465675855        48336.0317845074      0.2301200000      12.1543363033      0.5648485406      0.0000000000
0.5639851778        42328.7887605131      0.2321200000      12.1661166884      0.5835952277      0.0000000000
0.5815948271        37147.0194386757      0.2341200000      12.1797582448      0.6025937878      0.0000000000
0.5993850257        32686.1475240198      0.2361200000      12.1949453568      0.6218332562      0.0000000000
0.6173467883        28809.7248752724      0.2381200000      12.2116660876      0.6413053539      0.0000000000
0.6354680881        25457.0632642863      0.2401200000      12.2295874312      0.6609983783      0.0000000000
0.6537393759        22536.4729170539      0.2421200000      12.2486666499      0.6809032668      0.0000000000
0.6721496621        19992.8006407281      0.2441200000      12.2687120621      0.7010092813      0.0000000000
0.6906884866        17772.3411893213      0.2461200000      12.2895981356      0.7213061766      0.0000000000
0.7093454448        15829.7133992650      0.2481200000      12.3112100909      0.7417836777      0.0000000000
0.7281102012        14126.4642714469      0.2501200000      12.3334427787      0.7624314927      0.0000000000
0.7469725114        12629.9406243359      0.2521200000      12.3561999001      0.7832393360      0.0000000000
0.7659222361        11312.3439510320      0.2541200000      12.3793932197      0.8041969440      0.0000000000
0.7849489810        10152.8848677320      0.2561200000      12.4028991131      0.8252936666      0.0000000000
0.8040432516         9127.7313478979      0.2581200000      12.4266884656      0.8465197703      0.0000000000
0.8231953045         8219.6014987319      0.2601200000      12.4506933386      0.8678651444      0.0000000000
0.8423955546         7413.6460192120      0.2621200000      12.4748514720      0.8893197589      0.0000000000
0.8616342544         6698.9795046106      0.2641200000      12.4990669058      0.9108732984      0.0000000000
0.8809025183         6062.2910730821      0.2661200000      12.5233282946      0.9325163322      0.0000000000
0.9001909830         5495.6457647768      0.2681200000      12.5475505062      0.9542387854      0.0000000000
0.9194908237         4990.3830455515      0.2701200000      12.5716923252      0.9760311016      0.0000000000
0.9387937134         4537.7578940450      0.2721200000      12.5957518427      0.9978842031      0.0000000000
0.9580909276         4132.7914507774      0.2741200000      12.6196575634      1.0197884576      0.0000000000
0.9773742692         3769.8258202003      0.2761200000      12.6433783044      1.0417347475      0.0000000000
0.9966360377         3443.0031354957      0.2781200000      12.6669194196      1.0637144407      0.0000000000
1.0158679292         3150.0117897462      0.2801200000      12.6901874478      1.0857181084      0.0000000000
1.0350627065         2886.0811924820      0.2821200000      12.7131934837      1.1077374764      0.0000000000
1.0542135845         2646.5239804003      0.2841200000      12.7359797806      1.1297647192      0.0000000000
1.0733127370         2430.8045211346      0.2861200000      12.7584308728      1.1517906963      0.0000000000
1.0923533681         2236.2127623298      0.2881200000      12.7805317299      1.1738073933      0.0000000000
1.1113291519         2059.8359536317      0.2901200000      12.8022988810      1.1958072719      0.0000000000
1.1302339767         1899.2374087148      0.2921200000      12.8237481649      1.2177829708      0.0000000000
1.1490615027         1753.2901748747      0.2941200000      12.8448373809      1.2397267778      0.0000000000
1.1678056513         1620.8947610503      0.2961200000      12.8655278355      1.2616312134      0.0000000000
1.1864608127         1500.6049602496      0.2981200000      12.8858119150      1.2834892845      0.0000000000
1.2050220228         1390.4332720511      0.3001200000      12.9057378224      1.3052947063      0.0000000000
1.2234837073         1290.0799197957      0.3021200000      12.9252436282      1.3270403882      0.0000000000
1.2418413467         1197.9285323038      0.3041200000      12.9443778351      1.3487204494      0.0000000000
1.2600898463         1113.7856189582      0.3061200000      12.9630824403      1.3703282457      0.0000000000
1.2782247482         1036.8472260769      0.3081200000      12.9813549255      1.3918578435      0.0000000000
1.2962419972          966.1592829093      0.3101200000      12.9992186385      1.4133037437      0.0000000000
1.3141372052          901.5858355893      0.3121200000      13.0166218758      1.4346599797      0.0000000000
1.3319071045          841.8888165416      0.3141200000      13.0336384312      1.4559219101      0.0000000000
1.3495479067          786.8450568669      0.3161200000      13.0502422542      1.4770842008      0.0000000000
1.3670560469          736.2167553610      0.3181200000      13.0664095069      1.4981417421      0.0000000000
1.3844283401          689.5921696294      0.3201200000      13.0821415086      1.5190898470      0.0000000000
1.4016619580          646.4476116075      0.3221200000      13.0974629540      1.5399242290      0.0000000000
1.4187537833          606.7732415721      0.3241200000      13.1123299831      1.5606401964      0.0000000000
1.4357016782          569.8362960123      0.3261200000      13.1268128709      1.5812342458      0.0000000000
1.4525027505          535.8018390203      0.3281200000      13.1408469884      1.6017018878      0.0000000000
1.4691552043          504.0477084551      0.3301200000      13.1545014179      1.6220399788      0.0000000000
1.4856565187          474.7324804169      0.3321200000      13.1677140770      1.6422444255      0.0000000000
1.5020049398          447.5319358380      0.3341200000      13.1805107677      1.6623120735      0.0000000000
1.5181987277          422.2671593500      0.3361200000      13.1928956792      1.6822397580      0.0000000000
1.5342365689          398.5944233027      0.3381200000      13.2049140423      1.7020248337      0.0000000000
1.5501164905          376.7422442768      0.3401200000      13.2164881323      1.7216637839      0.0000000000
1.5658376152          356.3037897333      0.3421200000      13.2276840335      1.7411544746      0.0000000000
1.5813987969          337.1729732451      0.3441200000      13.2385058697      1.7604944072      0.0000000000
1.5967987799          319.3949871919      0.3461200000      13.2489191486      1.7796809207      0.0000000000
1.6120369480          302.7221536572      0.3481200000      13.2589681050      1.7987121644      0.0000000000
1.6271123166          287.2010246419      0.3501200000      13.2686194766      1.8175857944      0.0000000000
1.6420243936          272.6772986547      0.3521200000      13.2778980248      1.8363000928      0.0000000000
1.6567727978          259.0188252982      0.3541200000      13.2868276589      1.8548534762      0.0000000000
1.6713570256          246.2187722435      0.3561200000      13.2953949763      1.8732441907      0.0000000000
1.6857765826          234.3137512162      0.3581200000      13.3035695543      1.8914704825      0.0000000000
1.7000317455          223.0386863468      0.3601200000      13.3114294596      1.9095316079      0.0000000000
1.6997157264          223.2477511904      0.6800754997      13.3112544791      1.9091307641      0.0000055427
1.6917056632          226.3242844677      0.6834822364      13.2886727113      1.8989762931      0.0031755278
1.6812506415          228.6950643659      0.6868720766      13.2495182002      1.8857346102      0.0091041809
1.6708807970          229.5881195168      0.6902452693      13.2023543760      1.8726121213      0.0165957910
1.6610749579          229.0761305166      0.6936020573      13.1501279244      1.8602116102      0.0252080174
1.6519637664          227.4113427975      0.6969426777      13.0944083589      1.8486948778      0.0346856266
1.6436748728          224.6294047877      0.7002673619      13.0364170547      1.8382203140      0.0448411582
1.6363245435          220.8525376842      0.7035763358      12.9771168823      1.8289324653      0.0555069325
1.6298017619          216.2933452180      0.7068698200      12.9169351481      1.8206893937      0.0665815139
1.6241477838          211.0506435685      0.7101480300      12.8564602232      1.8135422475      0.0779403907
1.6193029874          205.2360756840      0.7134111765      12.7960261667      1.8074152643      0.0895592960
1.6152464695          199.0112945129      0.7166594650      12.7359433110      1.8022821101      0.1013119033
1.6120678393          192.4280554999      0.7198930969      12.6767439715      1.7982569036      0.1131551680
1.6095642787          185.6435754609      0.7231122687      12.6182850298      1.7950838954      0.1250221152
1.6076806227          178.7593675992      0.7263171726      12.5606764540      1.7926942471      0.1368827434
1.6064707530          171.8174314992      0.7295079968      12.5042658616      1.7911577533      0.1487088544
1.6058041951          164.8826177270      0.7326849251      12.4489489097      1.7903103161      0.1604347806
1.6057062454          158.0425905429      0.7358481376      12.3949343080      1.7901857564      0.1720728670
1.6060440217          151.3247707684      0.7389978104      12.3420522097      1.7906165460      0.1835852963
1.6068726311          144.7436723131      0.7421341159      12.2905793694      1.7916746092      0.1948876197
1.6081048568          138.3444249167      0.7452572228      12.2403996876      1.7932503598      0.2060640495
1.6097444265          132.1719518914      0.7483672963      12.1916103841      1.7953502662      0.2170642030
1.6116600410          126.2158782984      0.7514644984      12.1439533742      1.7978076569      0.2278839867
1.6139376871          120.4564217858      0.7545489875      12.0977643382      1.8007342845      0.2384527056
1.6165343544          114.9491934988      0.7576209188      12.0529643456      1.8040765809      0.2488137662
1.6193965935          109.6892710097      0.7606804446      12.0094644671      1.8077672523      0.2589531286
1.6223461030          104.6943203411      0.7637277139      11.9667552028      1.8115771974      0.2689815989
1.6256637021           99.8923999473      0.7667628728      11.9257934081      1.8158703527      0.2786960947
1.6290423693           95.3408355395      0.7697860646      11.8856159632      1.8202506163      0.2881887952
1.6326349030           91.0119419596      0.7727974297      11.8467520038      1.8249167575      0.2975326094
1.6363582715           86.8993177876      0.7757971059      11.8089627967      1.8297619271      0.3065892547
1.6402408278           83.0105978079      0.7787852282      11.7723523895      1.8348238467      0.3154070745
1.6441943177           79.3175041865      0.7817619291      11.7366616737      1.8399881112      0.3240904594
1.6482419541           75.8132542900      0.7847273386      11.7019807530      1.8452854773      0.3325378095
1.6524039454           72.4859637681      0.7876815842      11.6683987272      1.8507430175      0.3407276846
1.6565871791           69.3583823280      0.7906247910      11.6355618746      1.8562390079      0.3487757625
1.6608094065           66.3826499363      0.7935570820      11.6035782564      1.8617968895      0.3566674794
1.6650859916           63.5648495756      0.7964785775      11.5724919213      1.8674371372      0.3643040126
1.6695381166           60.8974586138      0.7993893961      11.5427619404      1.8733203540      0.3717025739
1.6738544707           58.3785603835      0.8022896539      11.5132188151      1.8790352725      0.3790122734
1.6782624961           55.9841518667      0.8051794650      11.4847358726      1.8848827823      0.3861155484
1.6826661265           53.7211394716      0.8080589415      11.4569287195      1.8907357347      0.3929694447
1.6870756154           51.5813018920      0.8109281936      11.4298344142      1.8966077275      0.3997399545
1.6915001672           49.5522324994      0.8137873293      11.4034939961      1.9025110767      0.4063321677
1.6959480433           47.6230126084      0.8166364549      11.3779454014      1.9084569297      0.4126498656
1.7003253248           45.7958262722      0.8194756748      11.3527923560      1.9143195571      0.4189196565
1.7047412501           44.0666441228      0.8223050916      11.3284675015      1.9202451256      0.4249912710
1.7091022930           42.4263044886      0.8251248062      11.3045879237      1.9261080921      0.4310052687
1.7134162340           40.8683869892      0.8279349177      11.2811764121      1.9319185371      0.4367774111
1.7176899871           39.3882519777      0.8307355236      11.2582520018      1.9376854615      0.4424833098
1.7220261779           37.9841948845      0.8335267196      11.2362391043      1.9435474366      0.4479721032
1.7263325678           36.6432727764      0.8363086000      11.2147585296      1.9493799261      0.4533875394
1.7305200493           35.3738083649      0.8390812574      11.1933886502      1.9550617198      0.4586927935
1.7346897134           34.1667607823      0.8418447830      11.1725655939      1.9607294969      0.4638277936
1.7389384987           33.0146945731      0.8445992664      11.1527211179      1.9665152782      0.4689092112
1.7429925227           31.9211939403      0.8473447958      11.1326188039      1.9720457452      0.4737587783
1.7470425015           30.8771097641      0.8500814579      11.1131050743      1.9775803577      0.4785158450
1.7510915390           29.8844819881      0.8528093382      11.0941778159      1.9831233799      0.4831846441
1.7550535149           28.9349028251      0.8555285205      11.0754505290      1.9885566508      0.4878206706
1.7590218369           28.0329541853      0.8582390876      11.0573227845      1.9940080049      0.4922733470
1.7629989469           27.1682657221      0.8609411209      11.0398214153      1.9994808958      0.4967185525
1.7668135730           26.3438818091      0.8636347004      11.0221265995      2.0047391583      0.5009205991
1.7706442788           25.5577381605      0.8663199051      11.0050585874      2.0100284321      0.5050206092
1.7744075451           24.8051529613      0.8689968125      10.9882250540      2.0152332850      0.5091729140
1.7781072656           24.0871883026      0.8716654990      10.9716243073      2.0203586866      0.5131924949
1.7817470669           23.3986385926      0.8743260401      10.9552726140      2.0254092868      0.5170783341
1.7854130395           22.7381377884      0.8769785097      10.9395768308      2.0305044680      0.5208647401
1.7889420650           22.1072134586      0.8796229810      10.9237288400      2.0354172071      0.5246645107
1.7925019453           21.5042949683      0.8822595257      10.9085355862      2.0403807710      0.5283634095
1.7960128534           20.9248582900      0.8848882149      10.8936102207      2.0452838480      0.5319256117
1.7994774804           20.3677289368      0.8875091183      10.8789569300      2.0501299252      0.5355275602
1.8028190548           19.8357632144      0.8901223046      10.8641694696      2.0548111233      0.5388777663
1.8061205938           19.3261764776      0.8927278417      10.8496548884      2.0594432442      0.5422665069
1.8094622036           18.8333726674      0.8953257963      10.8358271095      2.0641387158      0.5455520391
1.8126895528           18.3631796905      0.8979162342      10.8218748230      2.0686805011      0.5488462133
1.8158832877           17.9098745045      0.9004992203      10.8082135896      2.0731816520      0.5520009086
1.8190451770           17.4739499955      0.9030748185      10.7948405993      2.0776445048      0.5551074366
1.8221770010           17.0545759766      0.9056430920      10.7817579948      2.0820714205      0.5581654818
1.8252059364           16.6482327672      0.9082041027      10.7685905576      2.0863590960      0.5611389564
1.8282832642           16.2626795098      0.9107579120      10.7560831320      2.0907215328      0.5640080501
1.8312619551           15.8877634641      0.9133045803      10.7435003221      2.0949502147      0.5668832801
1.8341451855           15.5249914132      0.9158441672      10.7308384075      2.0990491028      0.5697640779
1.8370804579           15.1787022669      0.9183767314      10.7188480090      2.1032277762      0.5725400711
