# M(M_sol)                Lambda           n_Bc(fm^-3)          R(km)           m_B(M_sol)       m_Bquar/M_B
0.1513575633     33478963.0576514155      0.1170880000      21.8512154161      0.1515609183      0.0000000000
0.1553483638     29163840.8189712353      0.1190880000      21.2252232978      0.1556052119      0.0000000000
0.1594103260     25479595.8316443153      0.1210880000      20.6581683112      0.1597240645      0.0000000000
0.1635455685     22318049.5287977047      0.1230880000      20.1421467716      0.1639197564      0.0000000000
0.1677560147     19593945.4849803559      0.1250880000      19.6707510932      0.1681943632      0.0000000000
0.1720417432     17238214.7705263309      0.1270880000      19.2386234898      0.1725481199      0.0000000000
0.1764046719     15195103.0859554335      0.1290880000      18.8413230428      0.1769830920      0.0000000000
0.1808443880     13418001.3085387871      0.1310880000      18.4750018308      0.1814990263      0.0000000000
0.1853624427     11868763.1383730397      0.1330880000      18.1364433813      0.1860976256      0.0000000000
0.1899582256     10514859.8473559022      0.1350880000      17.8227839198      0.1907784445      0.0000000000
0.1946330922      9329469.2122538108      0.1370880000      17.5316273953      0.1955429956      0.0000000000
0.1993867298      8289466.3777855569      0.1390880000      17.2608074164      0.2003911349      0.0000000000
0.2042199651      7375509.5279307915      0.1410880000      17.0084812376      0.2053238545      0.0000000000
0.2091331763      6570998.7417917484      0.1430880000      16.7730070262      0.2103417029      0.0000000000
0.2141256010      5861464.0971605917      0.1450880000      16.5528652565      0.2154440978      0.0000000000
0.2191986764      5235001.6315100268      0.1470880000      16.3468319744      0.2206326464      0.0000000000
0.2243526635      4681102.8915299485      0.1490880000      16.1537564145      0.2259077892      0.0000000000
0.2295864150      4190428.6293256213      0.1510880000      15.9725215174      0.2312685703      0.0000000000
0.2349012103      3755385.7199072484      0.1530880000      15.8022706506      0.2367164474      0.0000000000
0.2402965745      3369068.2104959483      0.1550880000      15.6421294450      0.2422511383      0.0000000000
0.2457736755      3025765.7669833587      0.1570880000      15.4914128405      0.2478739953      0.0000000000
0.2513313402      2720134.8969612527      0.1590880000      15.3493567948      0.2535840474      0.0000000000
0.2569706539      2447871.5775751458      0.1610880000      15.2154096712      0.2593825696      0.0000000000
0.2626910633      2204982.6808024193      0.1630880000      15.0889699693      0.2652692116      0.0000000000
0.2684926348      1988068.7323399300      0.1650880000      14.9695282336      0.2712442407      0.0000000000
0.2743759888      1794221.7649194521      0.1670880000      14.8566588043      0.2773084760      0.0000000000
0.2803399343      1620683.5461831978      0.1690880000      14.7498559264      0.2834609406      0.0000000000
0.2863856167      1465293.8323413951      0.1710880000      14.6488074729      0.2897029790      0.0000000000
0.2925121084      1325937.4972468449      0.1730880000      14.5530957339      0.2960338793      0.0000000000
0.2987198575      1200894.0771630742      0.1750880000      14.4624286462      0.3024542959      0.0000000000
0.3050084567      1088566.3056125341      0.1770880000      14.3764819685      0.3089640366      0.0000000000
0.3113777405       987570.5478811610      0.1790880000      14.2949742936      0.3155631497      0.0000000000
0.3178272570       896663.9856374697      0.1810880000      14.2176272156      0.3222514012      0.0000000000
0.3243570319       814786.5076380951      0.1830880000      14.1442175005      0.3290290308      0.0000000000
0.3309667932       740978.6912859940      0.1850880000      14.0745210965      0.3358959840      0.0000000000
0.3376562340       674389.5406817027      0.1870880000      14.0083294040      0.3428521720      0.0000000000
0.3444250088       614263.6825947083      0.1890880000      13.9454483939      0.3498974678      0.0000000000
0.3512722866       559905.0907338249      0.1910880000      13.8856655526      0.3570312641      0.0000000000
0.3581983397       510756.9687123857      0.1930880000      13.8288605608      0.3642540456      0.0000000000
0.3652024822       466274.0690200414      0.1950880000      13.7748595729      0.3715653480      0.0000000000
0.3722840113       425972.7297964987      0.1970880000      13.7234997499      0.3789646892      0.0000000000
0.3794424106       389432.6821741120      0.1990880000      13.6746438102      0.3864517716      0.0000000000
0.3866773268       356286.6299249980      0.2010880000      13.6281772968      0.3940264573      0.0000000000
0.3939881540       326197.0327509008      0.2030880000      13.5839783754      0.4016883570      0.0000000000
0.4013736719       298841.5308750979      0.2050880000      13.5418908754      0.4094364730      0.0000000000
0.4088341791       273986.4186115580      0.2070880000      13.5018776082      0.4172713069      0.0000000000
0.4163683799       251368.9357539202      0.2090880000      13.4637954186      0.4251917825      0.0000000000
0.4239753508       230768.1520620356      0.2110880000      13.4275362948      0.4331971893      0.0000000000
0.4316544998       211996.6831985075      0.2130880000      13.3930241810      0.4412871417      0.0000000000
0.4394051813       194885.1288188055      0.2150880000      13.3601873137      0.4494611984      0.0000000000
0.4472265298       179276.0427232871      0.2170880000      13.3289449298      0.4577186977      0.0000000000
0.4551174796       165024.0892914610      0.2190880000      13.2992086437      0.4660587772      0.0000000000
0.4630771048       152002.7966430218      0.2210880000      13.2709068359      0.4744807092      0.0000000000
0.4711044439       140098.2557968650      0.2230880000      13.2439717526      0.4829837270      0.0000000000
0.4791985026       129207.7434445518      0.2250880000      13.2183390219      0.4915670274      0.0000000000
0.4873582513       119238.6232724414      0.2270880000      13.1939477270      0.5002297685      0.0000000000
0.4955827749       110109.7718184077      0.2290880000      13.1707509087      0.5089712165      0.0000000000
0.5038706798       101740.3442397256      0.2310880000      13.1486711562      0.5177901616      0.0000000000
0.5122212732        94069.1160675215      0.2330880000      13.1276888160      0.5266860794      0.0000000000
0.5206328250        87025.2892724213      0.2350880000      13.1077109389      0.5356574191      0.0000000000
0.5291045731        80559.4648071933      0.2370880000      13.0887221419      0.5447035773      0.0000000000
0.5376351583        74618.8480869185      0.2390880000      13.0706666053      0.5538233575      0.0000000000
0.5462233366        69157.5342468891      0.2410880000      13.0535012047      0.5630156709      0.0000000000
0.5548678359        64133.9163722590      0.2430880000      13.0371849339      0.5722793952      0.0000000000
0.5635673574        59510.2229503530      0.2450880000      13.0216786133      0.5816133754      0.0000000000
0.5723205783        55252.1570394635      0.2470880000      13.0069448391      0.5910164272      0.0000000000
0.5811261511        51328.5582905128      0.2490880000      12.9929478841      0.6004873352      0.0000000000
0.5899827049        47711.0995024090      0.2510880000      12.9796536348      0.6100248543      0.0000000000
0.5988888479        44374.0092041474      0.2530880000      12.9670294447      0.6196277125      0.0000000000
0.6078431668        41293.8341090039      0.2550880000      12.9550441306      0.6292946097      0.0000000000
0.6168442287        38449.2129188750      0.2570880000      12.9436678582      0.6390242192      0.0000000000
0.6258903688        35819.0875217502      0.2590880000      12.9328550570      0.6488149805      0.0000000000
0.6349806560        33389.7497737068      0.2610880000      12.9226210263      0.6586660437      0.0000000000
0.6441130731        31141.0754055043      0.2630880000      12.9128972169      0.6685754887      0.0000000000
0.6532863343        29059.8685373302      0.2650880000      12.9036755600      0.6785421035      0.0000000000
0.6624990259        27133.2171151893      0.2670880000      12.8949399777      0.6885645431      0.0000000000
0.6717493261        25346.9929368466      0.2690880000      12.8866435173      0.6986410567      0.0000000000
0.6810360890        23692.2133743554      0.2710880000      12.8787957050      0.7087705450      0.0000000000
0.6903574782        22156.8986708694      0.2730880000      12.8713519043      0.7189512275      0.0000000000
0.6997119440        20731.7054867547      0.2750880000      12.8642921167      0.7291815956      0.0000000000
0.7090981068        19408.9107142980      0.2770880000      12.8576119711      0.7394602983      0.0000000000
0.7185143049        18180.1092243196      0.2790880000      12.8512851884      0.7497857021      0.0000000000
0.7279588781        17037.6726127597      0.2810880000      12.8452866645      0.7601561668      0.0000000000
0.7374303368        15975.3512955629      0.2830880000      12.8396066054      0.7705702108      0.0000000000
0.7469270994        14987.0260212873      0.2850880000      12.8342284576      0.7810262547      0.0000000000
0.7564475822        14067.0796921226      0.2870880000      12.8291363524      0.7915227093      0.0000000000
0.7659901231        13210.0778511322      0.2890880000      12.8243084009      0.8020579014      0.0000000000
0.7755532207        12411.5911723152      0.2910880000      12.8197368886      0.8126303061      0.0000000000
0.7851352929        11667.2568709200      0.2930880000      12.8154077954      0.8232383122      0.0000000000
0.7947347611        10973.0618693929      0.2950880000      12.8113076271      0.8338803045      0.0000000000
0.8043499773        10325.1017616152      0.2970880000      12.8074171454      0.8445545927      0.0000000000
0.8139794468         9720.2144544497      0.2990880000      12.8037304523      0.8552596276      0.0000000000
0.8236216046         9155.2647095804      0.3010880000      12.8002355874      0.8659937843      0.0000000000
0.8332748934         8627.3633841341      0.3030880000      12.7969211513      0.8767554380      0.0000000000
0.8429377632         8133.8468454460      0.3050880000      12.7937761586      0.8875429638      0.0000000000
0.8526085406         7671.9499028533      0.3070880000      12.7907781971      0.8983546103      0.0000000000
0.8622859605         7240.0379584000      0.3090880000      12.7879409966      0.9091890136      0.0000000000
0.8719682402         6835.4186939143      0.3110880000      12.7852313107      0.9200443031      0.0000000000
0.8816540646         6456.5886096909      0.3130880000      12.7826573311      0.9309190524      0.0000000000
0.8913417487         6101.3754382786      0.3150880000      12.7801931096      0.9418114724      0.0000000000
0.9010300548         5768.6164917364      0.3170880000      12.7778525076      0.9527201977      0.0000000000
0.9107172699         5456.3164212252      0.3190880000      12.7756051397      0.9636433995      0.0000000000
0.9204020599         5163.2953537547      0.3210880000      12.7734542331      0.9745796073      0.0000000000
0.9300829835         4888.2396075622      0.3230880000      12.7713922299      0.9855272416      0.0000000000
0.9397586152         4629.9327399286      0.3250880000      12.7694118211      0.9964847318      0.0000000000
0.9494274373         4387.0811640696      0.3270880000      12.7674957498      1.0074504139      0.0000000000
0.9590882247         4158.9037137224      0.3290880000      12.7656530182      1.0184228985      0.0000000000
0.9687394952         3944.2680129581      0.3310880000      12.7638669584      1.0294005449      0.0000000000
0.9783799993         3742.4262340864      0.3330880000      12.7621415602      1.0403819295      0.0000000000
0.9880082451         3552.3326259338      0.3350880000      12.7604560431      1.0513653930      0.0000000000
0.9976230199         3373.3579669320      0.3370880000      12.7588148450      1.0623495373      0.0000000000
1.0072230276         3204.7800206848      0.3390880000      12.7572125733      1.0733328811      0.0000000000
1.0168069873         3045.9279833017      0.3410880000      12.7556440853      1.0843139518      0.0000000000
1.0263735486         2896.0725495514      0.3430880000      12.7540951024      1.0952912082      0.0000000000
1.0359216661         2754.8496234330      0.3450880000      12.7525797362      1.1062633946      0.0000000000
1.0454499375         2621.5136695905      0.3470880000      12.7510748822      1.1172289125      0.0000000000
1.0549572641         2495.6660895267      0.3490880000      12.7495855807      1.1281864486      0.0000000000
1.0644424303         2376.7956935380      0.3510880000      12.7481032788      1.1391345753      0.0000000000
1.0739043326         2264.5121778518      0.3530880000      12.7466286134      1.1500719682      0.0000000000
1.0833418439         2158.4077526533      0.3550880000      12.7451578273      1.1609972779      0.0000000000
1.0927538602         2058.1023755102      0.3570880000      12.7436873666      1.1719091741      0.0000000000
1.1021392591         1963.2072988600      0.3590880000      12.7422095776      1.1828063068      0.0000000000
1.1114969843         1873.3967672490      0.3610880000      12.7407213547      1.1936873865      0.0000000000
1.1208260025         1788.3666747262      0.3630880000      12.7392197634      1.2045511435      0.0000000000
1.1301253427         1707.8618106477      0.3650880000      12.7377061282      1.2153963648      0.0000000000
1.1393940545         1631.6397405273      0.3670880000      12.7361817290      1.2262218552      0.0000000000
1.1486310572         1559.3645370806      0.3690880000      12.7346316929      1.2370262958      0.0000000000
1.1578354870         1490.8583389725      0.3710880000      12.7330617508      1.2478085707      0.0000000000
1.1670064255         1425.9000848192      0.3730880000      12.7314695050      1.2585675114      0.0000000000
1.1761429773         1364.2828726678      0.3750880000      12.7298526935      1.2693019702      0.0000000000
1.1852442005         1305.7698943254      0.3770880000      12.7282014815      1.2800107560      0.0000000000
1.1943093196         1250.2273062766      0.3790880000      12.7265217056      1.2906928324      0.0000000000
1.2033375098         1197.4849945444      0.3810880000      12.7248114774      1.3013471172      0.0000000000
1.2123279359         1147.3647749748      0.3830880000      12.7230652147      1.3119725184      0.0000000000
1.2212798212         1099.7199149753      0.3850880000      12.7212813803      1.3225679988      0.0000000000
1.2301924445         1054.4296429463      0.3870880000      12.7194621047      1.3331325735      0.0000000000
1.2390650733         1011.3622440376      0.3890880000      12.7176059125      1.3436652475      0.0000000000
1.2478969984          970.3942045593      0.3910880000      12.7157113809      1.3541650482      0.0000000000
1.2566874397          931.3651435417      0.3930880000      12.7137665560      1.3646309387      0.0000000000
1.2654358596          894.2285993474      0.3950880000      12.7117845357      1.3750621075      0.0000000000
1.2741416147          858.8801132496      0.3970880000      12.7097640994      1.3854576463      0.0000000000
1.2828039655          825.1699218422      0.3990880000      12.7076902725      1.3958165601      0.0000000000
1.2914224058          793.0496998675      0.4010880000      12.7055725915      1.4061380705      0.0000000000
1.2999963884          762.4458994469      0.4030880000      12.7034135178      1.4164213630      0.0000000000
1.2997499034          763.2986674855      0.6681419612      12.7034581214      1.4161255305      0.0000078932
1.2965740889          759.4743175545      0.6716751485      12.6781352955      1.4123149101      0.0050823033
1.2918694350          749.2316612352      0.6751898472      12.6324167635      1.4066701825      0.0144587650
1.2878496783          731.2604524768      0.6786863447      12.5764349376      1.4018466574      0.0261820837
1.2848698398          707.0882777772      0.6821649208      12.5141661057      1.3982696761      0.0395211736
1.2830501218          678.1731881213      0.6856258484      12.4480274103      1.3960841245      0.0540096990
1.2824069565          645.8971596406      0.6890693932      12.3796864874      1.3953115594      0.0693132795
1.2828638577          611.5546956153      0.6924958147      12.3102738175      1.3958627789      0.0851926286
1.2844385457          576.0561756049      0.6959053658      12.2408442275      1.3977627728      0.1014366904
1.2869357360          540.4633941620      0.6992982932      12.1718359318      1.4007801391      0.1178812585
1.2903802645          505.2791121480      0.7026748377      12.1039806253      1.4049492515      0.1343443689
1.2947154325          471.0052651847      0.7060352344      12.0377425628      1.4102064722      0.1507087865
1.2996794992          438.2328710464      0.7093797128      11.9729562538      1.4162388818      0.1670140824
1.3053601429          407.0157081610      0.7127084970      11.9102324598      1.4231572465      0.1830671707
1.3116135164          377.5940824217      0.7160218058      11.8495304243      1.4307908084      0.1988529924
1.3184435324          349.9779165977      0.7193198532      11.7911415953      1.4391485361      0.2142714280
1.3255799230          324.3497029261      0.7226028480      11.7345016035      1.4479030106      0.2294418311
1.3332165367          300.4899967604      0.7258709945      11.6803751694      1.4572952973      0.2441652871
1.3411516114          278.4385903713      0.7291244923      11.6282955947      1.4670802122      0.2585047089
1.3493397121          258.1115297093      0.7323635368      11.5782358774      1.4772043863      0.2724809476
1.3578008478          239.3852535782      0.7355883188      11.5303660521      1.4876947049      0.2859188623
1.3663714584          222.1999520850      0.7387990251      11.4841941212      1.4983500738      0.2991067163
1.3751785230          206.3862411293      0.7419958384      11.4402248489      1.5093299151      0.3117422154
1.3840419085          191.8982399399      0.7451789375      11.3978658441      1.5204110179      0.3240612631
1.3929996366          178.6064540215      0.7483484975      11.3572794582      1.5316415985      0.3360079401
1.4020103718          166.4159046701      0.7515046895      11.3183308706      1.5429705516      0.3475731759
1.4111017899          155.2247498738      0.7546476814      11.2811440894      1.5544333480      0.3586102174
1.4201537987          144.9639995959      0.7577776374      11.2452508247      1.5658788134      0.3694704598
1.4292599801          135.5385934014      0.7608947184      11.2110298545      1.5774253626      0.3797709784
1.4382976148          126.8841472687      0.7639990820      11.1779687815      1.5889174037      0.3898809145
1.4472853465          118.9325866692      0.7670908825      11.1461362599      1.6003780707      0.3996737921
1.4562391908          111.6143470182      0.7701702712      11.1155793256      1.6118274477      0.4090215184
1.4651727696          104.8736696267      0.7732373965      11.0863482419      1.6232827743      0.4181172746
1.4739643650           98.6649293412      0.7762924038      11.0578885170      1.6345872625      0.4269301686
1.4827603648           92.9333555849      0.7793354354      11.0308284113      1.6459285289      0.4354620656
1.4914389197           87.6405984170      0.7823666312      11.0046001260      1.6571490431      0.4436847151
