# M(M_sol)                Lambda           n_Bc(fm^-3)          R(km)           m_B(M_sol)       m_Bquar/M_B
0.1547711493     10865050.3472802993      0.1693300000      16.1714197946      0.1550704203      0.0000000000
0.1624207189      8677891.2002713252      0.1713300000      15.6115608701      0.1628431978      0.0000000000
0.1704647379      6957592.7955070594      0.1733300000      15.1282240202      0.1710274009      0.0000000000
0.1789018497      5598990.6256015217      0.1753300000      14.7097825415      0.1796231265      0.0000000000
0.1877292295      4522740.1064010561      0.1773300000      14.3465387098      0.1886290153      0.0000000000
0.1969449528      3666938.4739787825      0.1793300000      14.0306262554      0.1980446757      0.0000000000
0.2065477934      2983287.4500302649      0.1813300000      13.7556375330      0.2078704827      0.0000000000
0.2165329330      2436243.7330698012      0.1833300000      13.5158171607      0.2181031525      0.0000000000
0.2269002859      1995580.7351333853      0.1853300000      13.3069410288      0.2287443228      0.0000000000
0.2376424320      1640910.8870960455      0.1873300000      13.1246063442      0.2397880857      0.0000000000
0.2487583154      1353457.5285345963      0.1893300000      12.9658574133      0.2512351470      0.0000000000
0.2602417733      1120241.7801610252      0.1913300000      12.8276283193      0.2630809466      0.0000000000
0.2720889325       930143.2010618498      0.1933300000      12.7075924666      0.2753233224      0.0000000000
0.2842937959       774868.9676915476      0.1953300000      12.6035477405      0.2879579176      0.0000000000
0.2968508201       647610.2222825271      0.1973300000      12.5136797395      0.3009808589      0.0000000000
0.3097554674       542687.2052616564      0.1993300000      12.4365806902      0.3143893401      0.0000000000
0.3229991244       456278.0725916589      0.2013300000      12.3706020977      0.3281762817      0.0000000000
0.3365750981       384877.7860809472      0.2033300000      12.3145456544      0.3423366102      0.0000000000
0.3504769423       325598.1806365302      0.2053300000      12.2674318777      0.3568655092      0.0000000000
0.3646977400       276156.5892211741      0.2073300000      12.2283920235      0.3717576603      0.0000000000
0.3792289492       234866.6823809877      0.2093300000      12.1965154647      0.3870060079      0.0000000000
0.3940606501       200445.5474553071      0.2113300000      12.1708636999      0.4026019996      0.0000000000
0.4091872514       171420.2569012682      0.2133300000      12.1511198674      0.4185416672      0.0000000000
0.4245982260       147006.0434076577      0.2153300000      12.1364960185      0.4348157521      0.0000000000
0.4402840315       126445.0332892959      0.2173300000      12.1264127371      0.4514159999      0.0000000000
0.4562359346       109046.3941513420      0.2193300000      12.1204666876      0.4683349816      0.0000000000
0.4724448950        94256.7345395038      0.2213300000      12.1182925651      0.4855648978      0.0000000000
0.4889011433        81653.1201546974      0.2233300000      12.1195060638      0.5030971146      0.0000000000
0.5055934011        70944.5503933865      0.2253300000      12.1236061255      0.5209213026      0.0000000000
0.5225129840        61767.8948661099      0.2273300000      12.1304432397      0.5390298842      0.0000000000
0.5396488194        53915.3845973034      0.2293300000      12.1396361865      0.5574126246      0.0000000000
0.5569906362        47177.9509677198      0.2313300000      12.1509355767      0.5760600893      0.0000000000
0.5745288421        41359.4691476088      0.2333300000      12.1642049384      0.5949635195      0.0000000000
0.5922521745        36343.7905500804      0.2353300000      12.1791423994      0.6141122491      0.0000000000
0.6101501514        32009.3563547822      0.2373300000      12.1955603206      0.6334963870      0.0000000000
0.6282125952        28246.8180202537      0.2393300000      12.2133291172      0.6531062986      0.0000000000
0.6464286132        24980.4328720206      0.2413300000      12.2322490430      0.6729314736      0.0000000000
0.6647876928        22138.1848122909      0.2433300000      12.2521777153      0.6929617333      0.0000000000
0.6832793512        19659.3945786350      0.2453300000      12.2729849987      0.7131868435      0.0000000000
0.7018931546        17492.8020733222      0.2473300000      12.2945518662      0.7335965323      0.0000000000
0.7206187355        15594.9986590568      0.2493300000      12.3167693279      0.7541805090      0.0000000000
0.7394458098        13929.1428761989      0.2513300000      12.3395377369      0.7749284809      0.0000000000
0.7583641921        12463.8844579184      0.2533300000      12.3627657258      0.7958301702      0.0000000000
0.7773638113        11172.4914338681      0.2553300000      12.3863697277      0.8168753304      0.0000000000
0.7964344579        10034.7494978511      0.2573300000      12.4102405487      0.8380534573      0.0000000000
0.8155668720         9025.5359372105      0.2593300000      12.4343740380      0.8593550297      0.0000000000
0.8347506286         8135.2224760739      0.2613300000      12.4586104381      0.8807690948      0.0000000000
0.8539770204         7342.3523058601      0.2633300000      12.4829863006      0.9022865667      0.0000000000
0.8732360072         6640.3069105021      0.2653300000      12.5073566479      0.9238967281      0.0000000000
0.8925189685         6014.2767138911      0.2673300000      12.5317342209      0.9455903965      0.0000000000
0.9118169750         5455.0997858424      0.2693300000      12.5560738602      0.9673579361      0.0000000000
0.9311208639         4957.3348435647      0.2713300000      12.5802788286      0.9891893380      0.0000000000
0.9504227885         4509.9449167327      0.2733300000      12.6043965330      1.0110760286      0.0000000000
0.9697140168         4109.3604081474      0.2753300000      12.6283377509      1.0330083048      0.0000000000
0.9889862807         3751.0020963065      0.2773300000      12.6520467898      1.0549769061      0.0000000000
1.0082321482         3428.1212870564      0.2793300000      12.6755494797      1.0769734613      0.0000000000
1.0274437989         3137.5638092981      0.2813300000      12.6987949148      1.0989890497      0.0000000000
1.0466138530         2875.6752218821      0.2833300000      12.7217611960      1.1210151780      0.0000000000
1.0657351643         2639.2582507989      0.2853300000      12.7444285415      1.1430435400      0.0000000000
1.0848008218         2425.5104972267      0.2873300000      12.7667791981      1.1650660216      0.0000000000
1.1038041542         2231.9699702646      0.2893300000      12.7887973457      1.1870747078      0.0000000000
1.1227387277         2056.4714684011      0.2913300000      12.8104688165      1.2090618842      0.0000000000
1.1415983462         1897.1072816558      0.2933300000      12.8317811021      1.2310200398      0.0000000000
1.1603770537         1752.1928420469      0.2953300000      12.8527231693      1.2529418726      0.0000000000
1.1790689751         1620.6189439246      0.2973300000      12.8732637826      1.2748200991      0.0000000000
1.1976687897         1500.6270933882      0.2993300000      12.8934169051      1.2966480339      0.0000000000
1.2161712483         1391.0564074096      0.3013300000      12.9131752959      1.3184190060      0.0000000000
1.2345711904         1291.1720774749      0.3033300000      12.9325123381      1.3401263804      0.0000000000
1.2528639792         1199.7143192290      0.3053300000      12.9514441337      1.3617640962      0.0000000000
1.2710450542         1115.8716234221      0.3073300000      12.9699664128      1.3833261208      0.0000000000
1.2891099450         1039.1536068163      0.3093300000      12.9880564348      1.4048064678      0.0000000000
1.3070546752          968.6442587549      0.3113300000      13.0057317515      1.4261997019      0.0000000000
1.3248753458          903.7684046815      0.3133300000      13.0229905951      1.4475004255      0.0000000000
1.3425680181          844.3838477928      0.3153300000      13.0397946815      1.4687031331      0.0000000000
1.3601295992          789.4282419719      0.3173300000      13.0562001640      1.4898033245      0.0000000000
1.3775564458          739.0124675186      0.3193300000      13.0721522107      1.5107957571      0.0000000000
1.3948458517          692.2477776399      0.3213300000      13.0877063368      1.5316763190      0.0000000000
1.4119945846          649.2551079763      0.3233300000      13.1028103690      1.5524401871      0.0000000000
1.4290000831          609.5476171818      0.3253300000      13.1174846796      1.5730833422      0.0000000000
1.4458599598          572.7110944040      0.3273300000      13.1317489387      1.5936019468      0.0000000000
1.4625718914          538.5064149396      0.3293300000      13.1456054410      1.6139922058      0.0000000000
1.4791336254          506.8231208827      0.3313300000      13.1590404157      1.6342503765      0.0000000000
1.4955431912          477.4441315728      0.3333300000      13.1720575169      1.6543730426      0.0000000000
1.5117987834          450.1734776189      0.3353300000      13.1846607157      1.6743569669      0.0000000000
1.5278988566          424.7465239692      0.3373300000      13.1968700483      1.6941992192      0.0000000000
1.5438417205          401.1833306774      0.3393300000      13.2086579996      1.7138966511      0.0000000000
1.5596261369          379.2454293414      0.3413300000      13.2200452486      1.7334466753      0.0000000000
1.5752510967          358.6561020494      0.3433300000      13.2310669499      1.7528469813      0.0000000000
1.5907151700          339.5943725352      0.3453300000      13.2416667949      1.7720946831      0.0000000000
1.6060177161          321.7330824830      0.3473300000      13.2518954805      1.7911879097      0.0000000000
1.6211579401          304.9844814797      0.3493300000      13.2617576148      1.8101245706      0.0000000000
1.6361349156          289.4392466219      0.3513300000      13.2712145381      1.8289023818      0.0000000000
1.6509483613          274.8329664877      0.3533300000      13.2803155433      1.8475198993      0.0000000000
1.6655978444          261.0996857263      0.3553300000      13.2890655378      1.8659754662      0.0000000000
1.6800828814          248.2747648240      0.3573300000      13.2974416470      1.8842673443      0.0000000000
1.6944033459          236.2411629578      0.3593300000      13.3054636915      1.9023942620      0.0000000000
1.7085591295          224.9410058669      0.3613300000      13.3131372380      1.9203549638      0.0000000000
1.7225502218          214.3212672024      0.3633300000      13.3204679431      1.9381483182      0.0000000000
1.7363766295          204.3718845183      0.3653300000      13.3274481203      1.9557732108      0.0000000000
1.7500387499          194.9323912408      0.3673300000      13.3341233250      1.9732290522      0.0000000000
1.7635365414          186.1122644183      0.3693300000      13.3404462978      1.9905146526      0.0000000000
1.7768705630          177.7639016861      0.3713300000      13.3464621546      2.0076296380      0.0000000000
1.7900410852          169.9204723221      0.3733300000      13.3521506618      2.0245732397      0.0000000000
1.8030487369          162.4856720413      0.3753300000      13.3575430027      2.0413451805      0.0000000000
1.8158938691          155.5196461112      0.3773300000      13.3626070289      2.0579448012      0.0000000000
1.8285773110          148.9059358214      0.3793300000      13.3673860609      2.0743721049      0.0000000000
1.8410996139          142.6750571384      0.3813300000      13.3718608547      2.0906267141      0.0000000000
1.8534616542          136.7512986201      0.3833300000      13.3760614060      2.1067087061      0.0000000000
1.8656641030          131.1636108998      0.3853300000      13.3799689219      2.1226178776      0.0000000000
1.8777078159          125.8889680064      0.3873300000      13.3835891656      2.1383542880      0.0000000000
1.8895938819          120.8423106146      0.3893300000      13.3869629467      2.1539183310      0.0000000000
1.9013230036          116.0939670095      0.3913300000      13.3900485530      2.1693098656      0.0000000000
1.9128962976          111.5838542375      0.3933300000      13.3928748389      2.1845293401      0.0000000000
1.9243147976          107.2975475511      0.3953300000      13.3954470232      2.1995770961      0.0000000000
1.9355795182          103.2394408208      0.3973300000      13.3977589770      2.2144534567      0.0000000000
1.9466916260           99.3777388619      0.3993300000      13.3998272362      2.2291589713      0.0000000000
1.9576522614           95.7009596201      0.4013300000      13.4016568109      2.2436941625      0.0000000000
1.9684624869           92.2296232719      0.4033300000      13.4032307783      2.2580594529      0.0000000000
1.9791236687           88.9049296616      0.4053300000      13.4045871176      2.2722557111      0.0000000000
1.9896370308           85.7195732050      0.4073300000      13.4057303429      2.2862836149      0.0000000000
2.0000036126           82.7218330991      0.4093300000      13.4066223527      2.3001435884      0.0000000000
1.9994927797           82.8645962776      1.1665938099      13.4065508040      2.2994600111      0.0000062117
1.9921075557           84.5634131670      1.1697878837      13.3994361433      2.2895838730      0.0006628844
1.9813660221           86.8014499885      1.1729732599      13.3847589044      2.2752404226      0.0020647087
1.9698635397           89.0569434168      1.1761500092      13.3658199043      2.2599066987      0.0039019582
1.9579219998           91.2817928832      1.1793182012      13.3437139477      2.2440146153      0.0060732362
1.9457687997           93.4820365463      1.1824779048      13.3190801536      2.2278679307      0.0085197535
1.9334294996           95.6532199774      1.1856291878      13.2922970848      2.2115010145      0.0112062465
1.9210640907           97.7400889778      1.1887721172      13.2637603958      2.1951259654      0.0140982217
1.9086543346           99.7919357151      1.1919067590      13.2336298780      2.1787180960      0.0171801626
1.8963364636          101.7639167651      1.1950331786      13.2021981699      2.1624567056      0.0204307622
1.8840790687          103.6915480758      1.1981514401      13.1695579049      2.1462992330      0.0238377856
1.8719363731          105.5297915394      1.2012616073      13.1358978077      2.1303160687      0.0273813256
1.8598758280          107.3055932245      1.2043637427      13.1012700842      2.1144632535      0.0310625960
1.8480420735          108.9955985420      1.2074579083      13.0659123223      2.0989295452      0.0348535856
1.8362513690          110.6161261010      1.2105441652      13.0297123066      2.0834725576      0.0387729346
1.8248199436          112.1095117072      1.2136225738      12.9930993408      2.0685053626      0.0427754847
1.8134598545          113.5522675932      1.2166931936      12.9557907273      2.0536494681      0.0468884238
1.8023563152          114.8730230399      1.2197560834      12.9180877990      2.0391459030      0.0510921370
1.7914186557          116.1410621182      1.2228113013      12.8799005222      2.0248748781      0.0553678069
1.7807542761          117.2705973108      1.2258589047      12.8414587817      2.0109752086      0.0597300515
1.7703123071          118.3050229490      1.2288989502      12.8027250203      1.9973792137      0.0641440385
1.7600020463          119.2797709671      1.2319314938      12.7636023273      1.9839677397      0.0686520382
1.7499803457          120.1196008969      1.2349565908      12.7243805470      1.9709437041      0.0732121075
1.7401069307          120.8992540517      1.2379742956      12.6848648015      1.9581236934      0.0778301077
1.7306562372          121.5282891941      1.2409846624      12.6455359224      1.9458627706      0.0824789463
1.7213003372          122.0802037551      1.2439877443      12.6059191085      1.9337343811      0.0871910771
1.7121354079          122.5410237664      1.2469835939      12.5661888412      1.9218624730      0.0919464082
1.7034127222          122.8706782083      1.2499722634      12.5267942060      1.9105713472      0.0967623389
1.6945836231          123.1910035985      1.2529538039      12.4868337689      1.8991500735      0.1015649988
1.6862009176          123.3518202410      1.2559282664      12.4473023420      1.8883130608      0.1064118854
1.6780127294          123.4268648595      1.2588957010      12.4077856957      1.8777336696      0.1112913553
1.6700817461          123.3951922840      1.2618561573      12.3684303289      1.8674921518      0.1161868076
1.6622969192          123.3088129142      1.2648096842      12.3290409413      1.8574444498      0.1211097403
1.6547089756          123.1506707048      1.2677563303      12.2897381188      1.8476554679      0.1260699566
1.6473661415          122.8857180395      1.2706961433      12.2506555233      1.8381868090      0.1310294230
1.6403139668          122.5404793639      1.2736291706      12.2118939217      1.8290965466      0.1359725025
1.6334182121          122.1138140914      1.2765554590      12.1732279355      1.8202111116      0.1409430351
1.6267150112          121.6347983698      1.2794750547      12.1347303851      1.8115766133      0.1459300130
1.6202387577          121.0350900160      1.2823880033      12.0965324143      1.8032369177      0.1508946387
1.6138403679          120.4545200871      1.2852943502      12.0582718052      1.7949996507      0.1559167204
1.6077294714          119.7570217690      1.2881941400      12.0204754996      1.7871343412      0.1608938005
1.6019345820          118.9754963391      1.2910874169      11.9832179320      1.7796772447      0.1658997344
1.5961145122          118.1839784416      1.2939742245      11.9457492888      1.7721890232      0.1707979289
1.5904742399          117.3275760042      1.2968546061      11.9085513332      1.7649331852      0.1757757267
1.5850350148          116.4576857259      1.2997286043      11.8716602295      1.7579367808      0.1807358465
1.5798170602          115.4961877632      1.3025962615      11.8351916404      1.7512255876      0.1856687296
1.5748389339          114.4775276602      1.3054576194      11.7991921267      1.7448232399      0.1905647590
1.5699313519          113.4274258010      1.3083127194      11.7632715255      1.7385118413      0.1954932510
1.5651094122          112.3781486341      1.3111616023      11.7274516692      1.7323106444      0.2003839310
1.5605745390          111.2643622085      1.3140043086      11.6922741542      1.7264785395      0.2052460836
1.5561533371          110.1292415533      1.3168408783      11.6573125485      1.7207924103      0.2100878204
1.5518582847          108.9538442565      1.3196713509      11.6226216785      1.7152681934      0.2149025400
1.5477009691          107.7706699515      1.3224957656      11.5882227441      1.7099206806      0.2197181116
1.5436922399          106.5614889249      1.3253141611      11.5541693425      1.7047637549      0.2244942882
1.5398421830          105.3256228049      1.3281265757      11.5205035236      1.6998103317      0.2292244302
1.5361601894          104.0628290963      1.3309330475      11.4872668215      1.6950724519      0.2339376541
1.5324678561          102.8108120196      1.3337336138      11.4539678973      1.6903204832      0.2386487326
1.5291472907          101.4938607208      1.3365283117      11.4217036282      1.6860461966      0.2432761003
1.5256457712          100.2378057809      1.3393171782      11.3888902232      1.6815380687      0.2479491214
